Name
Date of Birth,"Mar 27, 1959"
Recorded Date,2019-12-03 09:54:46 -0500
Classification,Sinus Rhythm
Symptoms,
Software Version,1.50
Device,"Watch4,2"
Sample Rate,510.227 hertz


Lead,Lead I
Unit,µV

34.044
39.648
45.13
50.342
55.127
59.32
62.774
65.369
66.993
67.556
67.017
65.376
62.679
59.021
54.496
49.196
43.215
36.648
29.604
22.211
14.609
6.943
-0.634
-7.984
-14.983
-21.541
-27.641
-33.31
-38.612
-43.626
-48.41
-53.043
-57.629
-62.277
-67.097
-72.187
-77.606
-83.485
-90.064
-97.419
-105.483
-114.003
-122.369
-129.989
-136.438
-141.073
-143.116
-142.305
-138.657
-132.577
-125.567
-119.064
-113.957
-111.788
-113.195
-116.494
-120.035
-121.752
-119.935
-116.934
-114.205
-108.285
-92.214
-54.348
15.533
118.231
247.839
393.769
543.01
686.703
816.075
919.271
985.263
1001.337
958.537
858.232
708.109
524.485
331.937
153.29
8.021
-90.37
-143.279
-158.417
-144.609
-115.603
-79.655
-44.404
-21.647
-15.156
-25.409
-48.166
-71.503
-89.294
-99.751
-103.794
-106.845
-110.485
-113.586
-115.139
-112.95
-106.559
-97.056
-85.212
-72.066
-58.601
-45.126
-31.8
-18.73
-5.796
7.016
19.621
32.021
44.258
56.334
68.233
79.872
91.085
101.759
111.82
121.205
129.865
137.72
144.685
150.719
155.82
160.019
163.346
165.809
167.414
168.185
168.17
167.453
166.134
164.298
162.027
159.407
156.522
153.461
150.3
147.073
143.793
140.462
137.088
133.692
130.292
126.888
123.469
120.016
116.519
112.989
109.438
105.873
102.311
98.786
95.354
92.103
89.111
86.432
84.111
82.179
80.669
79.624
79.075
79.042
79.53
80.525
82.02
84.019
86.504
89.44
92.769
96.409
100.307
104.447
108.815
113.402
118.19
123.152
128.279
133.575
139.037
144.658
150.401
156.203
162.004
167.747
173.371
178.832
184.056
188.939
193.392
197.337
200.708
203.448
205.489
206.75
207.165
206.701
205.364
203.201
200.281
196.686
192.529
187.926
183.011
177.928
172.796
167.714
162.764
158.022
153.572
149.51
145.93
142.886
140.403
138.472
137.06
136.111
135.54
135.243
135.104
135.013
134.888
134.67
134.324
133.814
133.105
132.156
130.921
129.383
127.545
125.418
123.027
120.411
117.621
114.73
111.826
108.975
106.225
103.603
101.108
98.738
96.489
94.344
92.294
90.312
88.351
86.38
84.371
82.29
80.109
77.785
75.265
72.523
69.554
66.367
63.012
59.538
56.005
52.5
49.1
45.891
42.981
40.452
38.378
36.841
35.91
35.665
36.199
37.566
39.8
42.913
46.871
51.629
57.119
63.243
69.908
77.021
84.473
92.162
99.981
107.8
115.485
122.884
129.825
136.15
141.72
146.412
150.14
152.845
154.486
155.048
154.51
152.841
150.016
146.029
140.901
134.693
127.487
119.392
110.556
101.139
91.314
81.251
71.101
60.994
51.054
41.401
32.173
23.528
15.623
8.582
2.5
-2.568
-6.588
-9.555
-11.495
-12.469
-12.568
-11.89
-10.524
-8.552
-6.058
-3.146
0.062
3.42
6.787
10.051
13.121
15.928
18.418
20.549
22.302
23.689
24.74
25.493
25.975
26.215
26.244
26.109
25.873
25.61
25.382
25.233
25.196
25.295
25.549
25.971
26.565
27.316
28.207
29.22
30.343
31.569
32.885
34.266
35.686
37.116
38.535
39.936
41.306
42.635
43.91
45.119
46.253
47.308
48.272
49.122
49.837
50.394
50.779
50.987
51.017
50.864
50.521
49.98
49.241
48.318
47.23
45.987
44.604
43.098
41.498
39.857
38.216
36.605
35.042
33.527
32.056
30.626
29.226
27.835
26.418
24.928
23.317
21.558
19.622
17.478
15.081
12.367
9.287
5.823
1.969
-2.261
-6.844
-11.755
-16.949
-22.361
-27.918
-33.548
-39.197
-44.857
-50.523
-56.193
-61.849
-67.442
-72.948
-78.396
-83.834
-89.315
-94.888
-100.56
-106.384
-112.545
-119.135
-126.067
-133.067
-139.582
-145.082
-149.266
-151.798
-152.128
-149.97
-145.467
-139.316
-132.988
-127.837
-124.697
-124.374
-127.775
-135.491
-146.169
-156.379
-162.193
-159.545
-148.375
-132.439
-111.374
-83.331
-43.06
20.276
108.86
219.499
346.431
475.999
597.803
702.097
776.323
809.39
789.862
712.739
581.229
407.772
214.479
24.284
-140.883
-264.329
-340.161
-370.721
-363.966
-331.783
-286.784
-239.401
-200.674
-179.516
-177.518
-191.929
-213.892
-232.574
-243.768
-247.234
-246.422
-246.412
-248.025
-250.264
-251.919
-251.313
-248.568
-244.771
-240.619
-236.95
-234.369
-232.901
-232.459
-232.874
-233.823
-235.081
-236.516
-237.961
-239.233
-240.185
-240.693
-240.664
-240.059
-238.829
-236.914
-234.308
-231.059
-227.274
-223.102
-218.666
-214.066
-209.387
-204.716
-200.139
-195.747
-191.619
-187.816
-184.388
-181.37
-178.79
-176.664
-174.969
-173.645
-172.59
-171.701
-170.907
-170.161
-169.436
-168.697
-167.901
-166.998
-165.942
-164.694
-163.209
-161.449
-159.381
-156.986
-154.266
-151.25
-147.986
-144.507
-140.822
-136.919
-132.774
-128.38
-123.743
-118.882
-113.821
-108.586
-103.229
-97.796
-92.33
-86.864
-81.407
-75.945
-70.462
-64.954
-59.426
-53.902
-48.406
-42.938
-37.499
-32.081
-26.677
-21.29
-15.901
-10.491
-5.05
0.425
5.905
11.321
16.611
21.72
26.586
31.165
35.397
39.196
42.484
45.193
47.27
48.689
49.413
49.4
48.618
47.042
44.685
41.609
37.88
33.557
28.713
23.416
17.761
11.877
5.893
-0.088
-5.981
-11.729
-17.272
-22.532
-27.437
-31.917
-35.93
-39.481
-42.578
-45.226
-47.436
-49.231
-50.656
-51.796
-52.741
-53.553
-54.277
-54.94
-55.569
-56.207
-56.9
-57.694
-58.612
-59.658
-60.833
-62.14
-63.582
-65.149
-66.813
-68.521
-70.213
-71.851
-73.41
-74.875
-76.233
-77.465
-78.549
-79.468
-80.219
-80.8
-81.212
-81.451
-81.514
-81.407
-81.146
-80.758
-80.273
-79.712
-79.088
-78.414
-77.7
-76.955
-76.19
-75.411
-74.618
-73.814
-73.005
-72.198
-71.399
-70.615
-69.845
-69.09
-68.348
-67.62
-66.907
-66.21
-65.531
-64.871
-64.233
-63.622
-63.042
-62.495
-61.984
-61.508
-61.068
-60.662
-60.288
-59.944
-59.626
-59.333
-59.059
-58.803
-58.561
-58.329
-58.104
-57.88
-57.655
-57.422
-57.177
-56.915
-56.631
-56.322
-55.982
-55.608
-55.198
-54.75
-54.261
-53.731
-53.158
-52.54
-51.875
-51.161
-50.397
-49.581
-48.71
-47.783
-46.802
-45.769
-44.688
-43.565
-42.404
-41.212
-39.997
-38.766
-37.525
-36.279
-35.032
-33.786
-32.547
-31.325
-30.129
-28.967
-27.843
-26.76
-25.719
-24.718
-23.753
-22.811
-21.867
-20.907
-19.923
-18.913
-17.886
-16.851
-15.809
-14.769
-13.737
-12.722
-11.738
-10.793
-9.882
-9.015
-8.205
-7.485
-6.912
-6.525
-6.337
-6.358
-6.578
-6.988
-7.583
-8.333
-9.192
-10.113
-11.047
-11.964
-12.856
-13.697
-14.451
-15.056
-15.418
-15.47
-15.169
-14.473
-13.347
-11.758
-9.669
-7.089
-4.078
-0.693
3.007
6.978
11.198
15.625
20.195
24.825
29.404
33.843
38.06
41.956
45.419
48.327
50.557
52.045
52.78
52.761
51.997
50.5
48.281
45.379
41.856
37.782
33.234
28.288
23.029
17.572
12.053
6.633
1.466
-3.337
-7.702
-11.577
-14.934
-17.789
-20.196
-22.242
-24.035
-25.661
-27.179
-28.658
-30.209
-31.965
-34.07
-36.692
-39.922
-43.866
-48.741
-54.576
-61.208
-68.266
-75.025
-80.781
-85.111
-87.446
-87.064
-83.84
-78.001
-70.332
-62.597
-56.06
-51.411
-49.848
-52.365
-58.851
-67.56
-74.563
-74.888
-64.613
-44.054
-15.949
19.286
61.182
114.996
190.923
292.2
419.825
567.254
716.364
850.404
952.265
1007.107
1007.621
949.647
835.507
674.409
481.804
280.432
93.074
-61.394
-169.071
-227.244
-241.93
-220.585
-175.603
-120.634
-65.03
-20.915
1.634
1.278
-20.261
-56.057
-92.766
-120.711
-134.932
-132.464
-118.562
-101.55
-85.994
-76.299
-72.084
-68.761
-64.528
-58.405
-50.73
-43.772
-38.302
-34.089
-30.992
-28.595
-26.758
-25.659
-25.278
-25.491
-26.249
-27.502
-29.168
-31.134
-33.246
-35.343
-37.334
-39.206
-40.959
-42.59
-44.082
-45.405
-46.524
-47.413
-48.041
-48.365
-48.334
-47.918
-47.114
-45.938
-44.428
-42.61
-40.494
-38.083
-35.371
-32.361
-29.061
-25.487
-21.659
-17.605
-13.364
-8.992
-4.555
-0.106
4.322
8.71
13.049
17.33
21.542
25.677
29.733
33.707
37.596
41.398
45.105
48.719
52.247
55.705
59.114
62.487
65.83
69.144
72.426
75.671
78.874
82.025
85.109
88.113
91.029
93.849
96.57
99.184
101.683
104.058
106.3
108.401
110.355
112.155
113.796
115.274
116.584
117.726
118.7
119.505
120.14
120.604
120.896
121.015
120.961
120.734
120.335
119.764
119.024
118.117
117.046
115.815
114.429
112.892
111.209
109.386
107.427
105.338
103.124
100.79
98.342
95.787
93.129
90.375
87.531
84.603
81.599
78.523
75.383
72.186
68.937
65.644
62.314
58.953
55.568
52.168
48.759
45.349
41.946
38.557
35.188
31.848
28.543
25.28
22.067
18.909
15.813
12.787
9.837
6.969
4.191
1.508
-1.072
-3.545
-5.903
-8.143
-10.257
-12.242
-14.093
-15.805
-17.375
-18.8
-20.077
-21.204
-22.179
-23.002
-23.673
-24.192
-24.561
-24.781
-24.856
-24.787
-24.58
-24.238
-23.766
-23.17
-22.456
-21.63
-20.701
-19.675
-18.562
-17.37
-16.108
-14.786
-13.414
-12.002
-10.561
-9.101
-7.634
-6.17
-4.72
-3.296
-1.908
-0.568
0.714
1.928
3.064
4.113
5.066
5.913
6.649
7.265
7.755
8.113
8.335
8.415
8.351
8.14
7.781
7.272
6.615
5.809
4.858
3.764
2.53
1.161
-0.339
-1.963
-3.706
-5.559
-7.516
-9.568
-11.707
-13.923
-16.205
-18.544
-20.929
-23.35
-25.793
-28.25
-30.707
-33.153
-35.578
-37.969
-40.314
-42.604
-44.827
-46.974
-49.034
-50.999
-52.861
-54.612
-56.245
-57.755
-59.136
-60.384
-61.493
-62.462
-63.286
-63.962
-64.49
-64.867
-65.092
-65.163
-65.081
-64.845
-64.458
-63.92
-63.234
-62.403
-61.433
-60.328
-59.094
-57.737
-56.262
-54.676
-52.983
-51.192
-49.307
-47.335
-45.279
-43.147
-40.942
-38.674
-36.345
-33.961
-31.524
-29.035
-26.498
-23.923
-21.32
-18.702
-16.086
-13.487
-10.931
-8.447
-6.057
-3.785
-1.648
0.345
2.176
3.828
5.291
6.549
7.595
8.438
9.084
9.547
9.852
10.025
10.103
10.141
10.171
10.22
10.304
10.421
10.58
10.785
11.027
11.295
11.572
11.82
12.008
12.113
12.087
11.889
11.475
10.776
9.759
8.412
6.732
4.745
2.471
-0.072
-2.841
-5.789
-8.867
-12.017
-15.201
-18.42
-21.672
-24.966
-28.326
-31.736
-35.195
-38.75
-42.458
-46.389
-50.615
-55.177
-60.088
-65.432
-71.363
-77.892
-84.9
-92.097
-98.92
-104.819
-109.388
-112.07
-112.149
-109.345
-103.643
-95.305
-85.622
-75.98
-67.286
-61.053
-57.986
-56.627
-55.499
-52.782
-47.162
-40.419
-33.886
-25.727
-10.014
22.641
81.516
172.314
293.692
439.028
597.434
753.573
890.417
991.012
1041.176
1032.048
963.784
843.678
683.125
499.04
309.542
132.863
-12.915
-115.198
-171.291
-186.821
-172.483
-143.25
-109.083
-76.874
-54.87
-44.488
-46.292
-58
-70.48
-79.564
-84.033
-84.479
-85.836
-89.551
-93.982
-97.87
-99.283
-97.787
-94.609
-90.65
-86.633
-83.266
-81.009
-80.102
-80.611
-82.392
-85.125
-88.558
-92.539
-96.858
-101.298
-105.684
-109.826
-113.588
-116.881
-119.582
-121.597
-122.872
-123.37
-123.096
-122.085
-120.377
-118.024
-115.099
-111.665
-107.788
-103.533
-98.96
-94.141
-89.147
-84.048
-78.91
-73.785
-68.705
-63.696
-58.771
-53.933
-49.181
-44.504
-39.888
-35.323
-30.803
-26.322
-21.874
-17.452
-13.047
-8.65
-4.253
0.152
4.567
8.998
13.446
17.911
22.391
26.884
31.385
35.891
40.399
44.907
49.411
53.908
58.391
62.856
67.294
71.699
76.06
80.368
84.61
88.774
92.848
96.818
100.669
104.387
107.954
111.356
114.576
117.597
120.403
122.976
125.302
127.364
129.147
130.638
131.823
132.691
133.229
133.429
133.283
132.785
131.929
130.713
129.136
127.198
124.902
122.252
119.254
115.917
112.249
108.263
103.971
99.389
94.531
89.418
84.066
78.498
72.734
66.797
60.71
54.498
48.186
41.798
35.359
28.896
22.433
15.995
9.607
3.294
-2.922
-9.016
-14.969
-20.758
-26.365
-31.772
-36.961
-41.918
-46.63
-51.085
-55.271
-59.181
-62.807
-66.145
-69.189
-71.94
-74.396
-76.558
-78.432
-80.02
-81.329
-82.368
-83.146
-83.672
-83.959
-84.018
-83.864
-83.511
-82.974
-82.269
-81.412
-80.421
-79.313
-78.105
-76.814
-75.46
-74.058
-72.625
-71.179
-69.736
-68.31
-66.918
-65.572
-64.287
-63.076
-61.949
-60.918
-59.991
-59.178
-58.485
-57.919
-57.483
-57.183
-57.02
-56.996
-57.111
-57.365
-57.755
-58.28
-58.936
-59.718
-60.62
-61.637
-62.76
-63.983
-65.296
-66.69
-68.156
-69.684
-71.263
-72.883
-74.532
-76.2
-77.876
-79.547
-81.204
-82.835
-84.43
-85.978
-87.471
-88.897
-90.25
-91.52
-92.7
-93.783
-94.764
-95.636
-96.395
-97.036
-97.556
-97.952
-98.223
-98.366
-98.382
-98.271
-98.032
-97.669
-97.184
-96.578
-95.857
-95.023
-94.082
-93.04
-91.901
-90.671
-89.359
-87.969
-86.509
-84.987
-83.408
-81.782
-80.114
-78.411
-76.682
-74.932
-73.167
-71.396
-69.622
-67.852
-66.092
-64.346
-62.618
-60.914
-59.235
-57.586
-55.97
-54.389
-52.845
-51.339
-49.874
-48.448
-47.064
-45.72
-44.417
-43.152
-41.925
-40.735
-39.581
-38.461
-37.373
-36.317
-35.29
-34.293
-33.325
-32.384
-31.471
-30.586
-29.729
-28.902
-28.106
-27.343
-26.616
-25.929
-25.288
-24.698
-24.165
-23.697
-23.301
-22.986
-22.76
-22.629
-22.6
-22.679
-22.873
-23.188
-23.632
-24.21
-24.93
-25.801
-26.826
-28.011
-29.359
-30.866
-32.532
-34.352
-36.322
-38.445
-40.725
-43.162
-45.759
-48.515
-51.423
-54.474
-57.641
-60.886
-64.172
-67.453
-70.685
-73.835
-76.862
-79.724
-82.382
-84.778
-86.852
-88.556
-89.835
-90.642
-90.953
-90.763
-90.115
-89.095
-87.801
-86.333
-84.777
-83.216
-81.775
-80.581
-79.768
-79.494
-79.851
-80.958
-83.044
-86.153
-90.161
-94.788
-99.392
-103.358
-106.372
-107.909
-107.273
-104.35
-99.271
-92.678
-86.205
-80.884
-76.905
-74.965
-75.79
-79.084
-84.152
-88.21
-86.021
-74.081
-50.836
-17.089
24.591
73.066
129.468
198.565
284.283
387.595
506.513
632.03
752.921
857.49
932.221
964.966
945.686
869.886
740.987
572.439
385.355
201.138
40.196
-84.445
-169.584
-217.755
-237.805
-238.601
-225.098
-200.015
-165.715
-128.112
-95.3
-74.474
-67.029
-66.795
-67.393
-65.172
-60.383
-57.814
-59.688
-64.247
-69.559
-73.353
-74.532
-73.82
-71.517
-67.29
-61.683
-55.974
-50.944
-47.08
-44.502
-42.765
-41.789
-41.94
-43.113
-44.797
-46.58
-48.046
-49.008
-49.602
-49.862
-49.698
-49.103
-48.118
-46.793
-45.236
-43.487
-41.504
-39.271
-36.792
-34.085
-31.212
-28.233
-25.188
-22.11
-19.016
-15.896
-12.743
-9.555
-6.323
-3.049
0.264
3.602
6.931
10.215
13.428
16.556
19.601
22.571
25.469
28.297
31.058
33.743
36.348
38.873
41.31
43.661
45.932
48.138
50.301
52.445
54.589
56.744
58.918
61.114
63.336
65.585
67.855
70.145
72.454
74.777
77.116
79.467
81.823
84.177
86.517
88.833
91.112
93.345
95.52
97.625
99.651
101.587
103.425
105.157
106.771
108.258
109.608
110.81
111.854
112.732
113.435
113.955
114.284
114.418
114.35
114.077
113.597
112.905
112.002
110.885
109.557
108.019
106.272
104.319
102.166
99.816
97.275
94.551
91.649
88.579
85.349
81.968
78.446
74.794
71.022
67.14
63.16
59.093
54.95
50.742
46.481
42.178
37.844
33.489
29.126
24.763
20.411
16.08
11.779
7.517
3.304
-0.853
-4.945
-8.963
-12.9
-16.749
-20.502
-24.152
-27.692
-31.117
-34.421
-37.597
-40.642
-43.549
-46.316
-48.938
-51.41
-53.73
-55.895
-57.901
-59.746
-61.428
-62.945
-64.294
-65.476
-66.488
-67.331
-68.002
-68.503
-68.833
-68.993
-68.984
-68.807
-68.463
-67.956
-67.287
-66.461
-65.481
-64.351
-63.078
-61.665
-60.118
-58.445
-56.651
-54.744
-52.731
-50.62
-48.419
-46.138
-43.785
-41.37
-38.903
-36.393
-33.85
-31.283
-28.705
-26.123
-23.548
-20.991
-18.461
-15.97
-13.525
-11.139
-8.819
-6.575
-4.415
-2.349
-0.383
1.476
3.22
4.844
6.342
7.709
8.941
10.033
10.982
11.785
12.44
12.947
13.305
13.514
13.575
13.491
13.264
12.896
12.391
11.752
10.984
10.091
9.078
7.951
6.716
5.38
3.949
2.431
0.833
-0.836
-2.57
-4.361
-6.2
-8.079
-9.991
-11.927
-13.878
-15.835
-17.789
-19.732
-21.652
-23.54
-25.386
-27.183
-28.92
-30.591
-32.188
-33.703
-35.133
-36.47
-37.711
-38.847
-39.873
-40.781
-41.564
-42.216
-42.73
-43.098
-43.316
-43.38
-43.287
-43.038
-42.632
-42.065
-41.336
-40.439
-39.372
-38.141
-36.746
-35.197
-33.505
-31.687
-29.769
-27.778
-25.735
-23.657
-21.555
-19.433
-17.298
-15.156
-13.01
-10.874
-8.756
-6.663
-4.607
-2.597
-0.628
1.308
3.237
5.19
7.178
9.197
11.236
13.262
15.242
17.139
18.896
20.472
21.832
22.933
23.751
24.262
24.421
24.184
23.493
22.285
20.537
18.256
15.455
12.186
8.502
4.469
0.189
-4.247
-8.762
-13.267
-17.694
-21.982
-26.044
-29.803
-33.187
-36.126
-38.624
-40.734
-42.513
-44.042
-45.385
-46.614
-47.877
-49.336
-51.126
-53.386
-56.176
-59.576
-63.817
-69.003
-75.037
-81.633
-88.156
-93.965
-98.702
-101.927
-102.976
-101.544
-97.753
-92.327
-86.874
-82.769
-80.811
-81.839
-86.718
-95.862
-107.593
-117.93
-122.458
-116.99
-101.666
-80.579
-53.325
-17.742
31.818
106.588
208.347
333.079
474.117
616.308
748.005
858.8
935.969
969.294
948.567
869.446
734.598
556.125
357.343
163.121
-0.592
-115.666
-180.545
-202.276
-195.47
-174.881
-146.769
-115.689
-86.193
-62.407
-49.865
-49.361
-55.107
-61.481
-64.737
-64.441
-64.553
-67.123
-71.09
-74.902
-76.305
-74.455
-70.326
-64.874
-58.894
-53.181
-48.358
-44.763
-42.561
-41.643
-41.67
-42.421
-43.781
-45.592
-47.678
-49.877
-52.02
-54.01
-55.823
-57.416
-58.755
-59.82
-60.586
-61.061
-61.278
-61.256
-61.015
-60.558
-59.866
-58.931
-57.761
-56.373
-54.806
-53.085
-51.225
-49.234
-47.105
-44.832
-42.416
-39.846
-37.108
-34.194
-31.105
-27.861
-24.504
-21.065
-17.559
-13.997
-10.379
-6.708
-2.997
0.748
4.525
8.333
12.173
16.035
19.906
23.782
27.66
31.545
35.445
39.35
43.248
47.127
50.982
54.815
58.629
62.418
66.174
69.888
73.564
77.212
80.837
84.437
88.008
91.555
95.098
98.675
102.319
106.038
109.823
113.649
117.489
121.315
125.086
128.75
132.232
135.464
138.392
140.977
143.18
144.951
146.215
146.884
146.888
146.185
144.757
142.604
139.731
136.159
131.933
127.128
121.84
116.154
110.134
103.832
97.298
90.594
83.803
77.015
70.303
63.721
57.317
51.125
45.183
39.509
34.101
28.933
23.963
19.164
14.527
10.053
5.742
1.591
-2.411
-6.275
-10.001
-13.588
-17.033
-20.336
-23.5
-26.52
-29.381
-32.057
-34.523
-36.76
-38.76
-40.522
-42.047
-43.337
-44.397
-45.234
-45.865
-46.304
-46.563
-46.652
-46.582
-46.365
-46.019
-45.56
-45.007
-44.376
-43.682
-42.94
-42.162
-41.361
-40.55
-39.737
-38.93
-38.139
-37.373
-36.642
-35.956
-35.323
-34.753
-34.253
-33.83
-33.492
-33.243
-33.088
-33.03
-33.071
-33.213
-33.458
-33.805
-34.253
-34.803
-35.452
-36.199
-37.04
-37.975
-38.999
-40.109
-41.303
-42.577
-43.926
-45.349
-46.84
-48.395
-50.011
-51.681
-53.402
-55.167
-56.97
-58.805
-60.666
-62.546
-64.437
-66.333
-68.226
-70.108
-71.974
-73.815
-75.625
-77.398
-79.126
-80.806
-82.429
-83.992
-85.49
-86.917
-88.269
-89.54
-90.727
-91.824
-92.826
-93.73
-94.531
-95.224
-95.806
-96.274
-96.625
-96.858
-96.972
-96.964
-96.836
-96.588
-96.221
-95.736
-95.138
-94.428
-93.612
-92.693
-91.677
-90.569
-89.375
-88.1
-86.751
-85.332
-83.849
-82.306
-80.707
-79.057
-77.361
-75.625
-73.855
-72.057
-70.239
-68.408
-66.572
-64.738
-62.913
-61.101
-59.305
-57.529
-55.776
-54.048
-52.346
-50.668
-49.017
-47.394
-45.8
-44.236
-42.698
-41.177
-39.671
-38.178
-36.701
-35.243
-33.807
-32.4
-31.034
-29.732
-28.514
-27.397
-26.391
-25.493
-24.704
-24.025
-23.456
-23.001
-22.65
-22.381
-22.176
-22.022
-21.904
-21.806
-21.695
-21.518
-21.235
-20.818
-20.255
-19.557
-18.732
-17.788
-16.747
-15.64
-14.522
-13.467
-12.531
-11.753
-11.177
-10.843
-10.808
-11.142
-11.882
-13.043
-14.62
-16.588
-18.923
-21.601
-24.564
-27.733
-31.003
-34.253
-37.388
-40.339
-43.029
-45.4
-47.387
-48.948
-50.119
-50.958
-51.537
-51.928
-52.159
-52.296
-52.452
-52.75
-53.333
-54.332
-55.804
-57.842
-60.636
-64.226
-68.525
-73.287
-77.93
-81.886
-84.77
-86.072
-85.146
-81.723
-75.826
-67.761
-58.789
-50.282
-43.079
-38.447
-37.06
-37.813
-39.271
-39.599
-37.563
-34.072
-29.798
-23.498
-8.804
22.951
77.817
160.551
267.095
389.409
523.49
659.945
790.005
903.142
978.066
996.475
945.768
822.913
643.37
432.46
220.479
35.167
-107.165
-199.06
-245.075
-255.344
-238.07
-204.903
-163.404
-120.917
-89.714
-74.273
-75.581
-89.297
-102.871
-110.04
-109.646
-103.822
-99.285
-98.36
-99.385
-100.619
-99.694
-96.092
-91.092
-85.592
-80.274
-75.752
-72.404
-70.449
-69.939
-70.698
-72.393
-74.772
-77.678
-80.915
-84.264
-87.528
-90.512
-93.08
-95.144
-96.627
-97.471
-97.643
-97.137
-95.972
-94.192
-91.853
-89.021
-85.765
-82.15
-78.239
-74.096
-69.792
-65.399
-60.993
-56.642
-52.396
-48.289
-44.345
-40.579
-36.997
-33.595
-30.361
-27.278
-24.334
-21.52
-18.826
-16.247
-13.772
-11.387
-9.079
-6.836
-4.647
-2.502
-0.394
1.685
3.74
5.776
7.794
9.794
11.781
13.757
15.726
17.692
19.657
21.624
23.596
25.572
27.553
29.538
31.524
33.506
35.482
37.445
39.391
41.312
43.202
45.053
46.855
48.601
50.28
51.883
53.398
54.815
56.123
57.311
58.37
59.288
60.058
60.67
61.118
61.395
61.495
61.414
61.148
60.695
60.053
59.222
58.204
57
55.614
54.051
52.316
50.417
48.361
46.158
43.817
41.349
38.766
36.079
33.302
30.446
27.527
24.557
21.552
18.526
15.493
12.468
9.463
6.494
3.571
0.707
-2.087
-4.802
-7.428
-9.957
-12.384
-14.701
-16.905
-18.992
-20.961
-22.809
-24.538
-26.148
-27.642
-29.022
-30.293
-31.46
-32.528
-33.503
-34.391
-35.201
-35.94
-36.616
-37.238
-37.814
-38.354
-38.866
-39.359
-39.843
-40.324
-40.811
-41.311
-41.831
-42.376
-42.951
-43.56
-44.206
-44.891
-45.616
-46.381
-47.185
-48.025
-48.899
-49.803
-50.731
-51.679
-52.64
-53.607
-54.574
-55.532
-56.474
-57.392
-58.277
-59.121
-59.915
-60.65
-61.319
-61.913
-62.423
-62.843
-63.165
-63.384
-63.493
-63.487
-63.364
-63.119
-62.75
-62.257
-61.639
-60.897
-60.034
-59.053
-57.957
-56.754
-55.449
-54.049
-52.563
-51
-49.368
-47.677
-45.939
-44.162
-42.358
-40.538
-38.713
-36.895
-35.095
-33.324
-31.595
-29.916
-28.3
-26.756
-25.293
-23.92
-22.644
-21.472
-20.411
-19.466
-18.641
-17.94
-17.365
-16.918
-16.599
-16.406
-16.339
-16.394
-16.567
-16.853
-17.247
-17.743
-18.335
-19.014
-19.775
-20.608
-21.506
-22.46
-23.459
-24.494
-25.554
-26.628
-27.704
-28.771
-29.818
-30.834
-31.811
-32.739
-33.609
-34.415
-35.15
-35.807
-36.38
-36.861
-37.244
-37.522
-37.69
-37.741
-37.672
-37.478
-37.154
-36.702
-36.121
-35.411
-34.568
-33.59
-32.473
-31.223
-29.846
-28.35
-26.749
-25.056
-23.29
-21.48
-19.654
-17.837
-16.053
-14.31
-12.618
-10.99
-9.435
-7.968
-6.593
-5.302
-4.079
-2.916
-1.797
-0.707
0.38
1.512
2.728
4.053
5.505
7.077
8.753
10.522
12.364
14.25
16.137
17.957
19.631
21.101
22.308
23.189
23.677
23.684
23.14
22.02
20.311
18.032
15.217
11.895
8.112
3.946
-0.51
-5.138
-9.8
-14.395
-18.817
-22.962
-26.735
-30.027
-32.783
-35.034
-36.829
-38.245
-39.356
-40.191
-40.823
-41.397
-42.05
-42.944
-44.239
-45.982
-48.316
-51.514
-55.63
-60.568
-66.009
-71.233
-75.637
-78.906
-80.464
-79.631
-76.284
-70.616
-63.448
-56.446
-50.896
-47.562
-47.517
-51.833
-59.315
-66.981
-71.577
-68.615
-57.893
-43.879
-26.232
-2.283
34.69
97.825
190.691
308.625
443.169
578.107
702.476
809.793
891.626
940.271
943.61
889.483
773.867
602.981
397.306
187.048
1.612
-135.614
-214.762
-241.313
-226.44
-185.29
-132.712
-77.963
-33.322
-9.238
-8.912
-32.868
-69.309
-101.246
-119.683
-118.393
-102.215
-83.841
-69.164
-62.44
-63.042
-64.091
-62.755
-58.105
-50.105
-41.636
-34.34
-28.277
-23.611
-20.029
-17.232
-15.425
-14.72
-14.999
-16.143
-18.036
-20.52
-23.464
-26.775
-30.303
-33.908
-37.517
-41.055
-44.481
-47.778
-50.901
-53.788
-56.355
-58.513
-60.204
-61.4
-62.097
-62.307
-62.047
-61.344
-60.241
-58.783
-57.005
-54.932
-52.574
-49.934
-47.037
-43.921
-40.647
-37.281
-33.873
-30.454
-27.049
-23.672
-20.332
-17.032
-13.761
-10.501
-7.243
-3.979
-0.711
2.556
5.828
9.118
12.441
15.82
19.269
22.794
26.4
30.089
33.856
37.696
41.594
45.532
49.494
53.469
57.442
61.403
65.338
69.231
73.067
76.827
80.496
84.056
87.491
90.785
93.922
96.887
99.667
102.249
104.622
106.771
108.685
110.352
111.76
112.902
113.768
114.351
114.645
114.647
114.353
113.763
112.878
111.698
110.228
108.471
106.434
104.123
101.548
98.717
95.643
92.336
88.808
85.075
81.149
77.046
72.782
68.373
63.838
59.194
54.46
49.655
44.797
39.907
35.002
30.102
25.225
20.389
15.612
10.909
6.296
1.79
-2.597
-6.852
-10.961
-14.915
-18.702
-22.314
-25.743
-28.981
-32.023
-34.863
-37.498
-39.923
-42.138
-44.139
-45.927
-47.502
-48.866
-50.02
-50.968
-51.714
-52.264
-52.624
-52.799
-52.798
-52.63
-52.301
-51.823
-51.203
-50.452
-49.579
-48.594
-47.508
-46.33
-45.07
-43.739
-42.347
-40.902
-39.415
-37.895
-36.352
-34.793
-33.228
-31.666
-30.114
-28.581
-27.074
-25.601
-24.169
-22.785
-21.455
-20.185
-18.98
-17.845
-16.783
-15.799
-14.896
-14.076
-13.341
-12.693
-12.132
-11.661
-11.279
-10.987
-10.784
-10.668
-10.641
-10.699
-10.842
-11.067
-11.373
-11.757
-12.217
-12.751
-13.355
-14.026
-14.761
-15.557
-16.409
-17.314
-18.268
-19.267
-20.306
-21.381
-22.488
-23.623
-24.781
-25.957
-27.149
-28.35
-29.558
-30.768
-31.975
-33.175
-34.363
-35.537
-36.691
-37.821
-38.924
-39.995
-41.031
-42.027
-42.979
-43.883
-44.735
-45.53
-46.265
-46.936
-47.538
-48.068
-48.521
-48.893
-49.181
-49.382
-49.49
-49.503
-49.417
-49.227
-48.931
-48.526
-48.009
-47.378
-46.63
-45.764
-44.778
-43.672
-42.444
-41.095
-39.624
-38.032
-36.319
-34.489
-32.541
-30.481
-28.31
-26.034
-23.658
-21.186
-18.627
-15.986
-13.271
-10.493
-7.66
-4.783
-1.873
1.056
3.991
6.917
9.818
12.679
15.482
18.209
20.843
23.364
25.756
28
30.08
31.979
33.682
35.173
36.438
37.463
38.234
38.738
38.961
38.893
38.527
37.859
36.888
35.615
34.041
32.164
29.985
27.508
24.736
21.672
18.324
14.704
10.833
6.753
2.507
-1.859
-6.3
-10.776
-15.246
-19.665
-23.982
-28.149
-32.11
-35.814
-39.212
-42.245
-44.865
-47.043
-48.785
-50.155
-51.234
-52.108
-52.85
-53.508
-54.152
-54.882
-55.791
-56.972
-58.527
-60.501
-63.025
-66.347
-70.493
-75.349
-80.641
-85.721
-90.013
-93.179
-94.553
-93.351
-89.523
-83.219
-74.987
-66.546
-59.121
-53.284
-50.636
-51.686
-54.312
-56.832
-56.833
-52.281
-46.155
-40.009
-30.244
-10.211
31.261
103.508
206.277
333.07
473.515
614.36
746.385
860.878
947.146
998.186
1005.15
962.262
871.677
736.244
567.288
382.815
200.089
39.756
-81.949
-158.573
-189.303
-180.135
-143.947
-94.103
-44.28
-9.181
5.242
0.122
-18.362
-37.157
-48.835
-52.525
-50.1
-47.841
-48.476
-50.513
-52.467
-52.115
-48.805
-43.76
-37.998
-32.38
-27.658
-24.263
-22.377
-22.032
-23.062
-25.154
-28.085
-31.711
-35.829
-40.227
-44.712
-49.076
-53.163
-56.861
-60.032
-62.567
-64.398
-65.476
-65.803
-65.409
-64.33
-62.618
-60.336
-57.541
-54.294
-50.657
-46.688
-42.458
-38.041
-33.506
-28.92
-24.334
-19.782
-15.29
-10.872
-6.529
-2.259
1.95
6.114
10.243
14.344
18.425
22.493
26.554
30.619
34.692
38.777
42.877
46.992
51.125
55.278
59.45
63.634
67.822
72.005
76.172
80.312
84.407
88.428
92.354
96.171
99.872
103.457
106.924
110.267
113.484
116.576
119.543
122.393
125.129
127.745
130.247
132.645
134.963
137.245
139.519
141.791
144.061
146.317
148.542
150.729
152.854
154.868
156.727
158.386
159.798
160.939
161.764
162.212
162.221
161.706
160.604
158.887
156.534
153.523
149.851
145.501
140.481
134.85
128.663
121.975
114.853
107.35
99.545
91.548
83.46
75.384
67.416
59.612
52.03
44.741
37.802
31.274
25.211
19.615
14.486
9.831
5.628
1.862
-1.508
-4.561
-7.36
-9.951
-12.379
-14.663
-16.823
-18.898
-20.916
-22.907
-24.906
-26.92
-28.957
-31.031
-33.132
-35.246
-37.347
-39.38
-41.304
-43.098
-44.747
-46.243
-47.588
-48.772
-49.792
-50.652
-51.345
-51.874
-52.24
-52.441
-52.486
-52.394
-52.186
-51.896
-51.553
-51.179
-50.792
-50.405
-50.028
-49.674
-49.351
-49.062
-48.815
-48.619
-48.484
-48.42
-48.435
-48.534
-48.72
-48.993
-49.353
-49.8
-50.333
-50.953
-51.659
-52.452
-53.333
-54.303
-55.361
-56.507
-57.737
-59.048
-60.434
-61.891
-63.413
-64.993
-66.626
-68.305
-70.025
-71.778
-73.56
-75.362
-77.179
-79.002
-80.825
-82.64
-84.44
-86.218
-87.967
-89.681
-91.354
-92.982
-94.559
-96.082
-97.546
-98.949
-100.288
-101.561
-102.766
-103.903
-104.972
-105.973
-106.907
-107.776
-108.581
-109.326
-110.013
-110.645
-111.227
-111.761
-112.253
-112.705
-113.121
-113.507
-113.867
-114.204
-114.523
-114.829
-115.126
-115.417
-115.707
-115.999
-116.297
-116.602
-116.918
-117.245
-117.585
-117.939
-118.306
-118.686
-119.078
-119.48
-119.889
-120.303
-120.719
-121.133
-121.541
-121.939
-122.323
-122.689
-123.031
-123.344
-123.625
-123.869
-124.071
-124.226
-124.332
-124.384
-124.379
-124.313
-124.184
-123.99
-123.73
-123.4
-123.003
-122.536
-122.002
-121.402
-120.738
-120.014
-119.235
-118.408
-117.54
-116.641
-115.719
-114.785
-113.851
-112.925
-112.019
-111.14
-110.296
-109.497
-108.749
-108.063
-107.449
-106.914
-106.466
-106.113
-105.859
-105.71
-105.663
-105.718
-105.871
-106.12
-106.473
-106.937
-107.519
-108.222
-109.051
-110
-111.059
-112.207
-113.412
-114.634
-115.834
-116.973
-118.017
-118.935
-119.695
-120.257
-120.568
-120.579
-120.242
-119.513
-118.357
-116.766
-114.763
-112.407
-109.796
-107.032
-104.203
-101.416
-98.784
-96.417
-94.431
-92.93
-91.99
-91.747
-92.421
-94.1
-96.744
-100.164
-103.874
-107.384
-110.318
-112.107
-112.014
-109.697
-105.12
-98.606
-91.441
-84.936
-79.86
-77.489
-78.428
-81.379
-85.046
-87.72
-88.181
-88.477
-89.418
-87.792
-76.191
-42.782
20.494
113.174
227.31
350.007
472.154
591.325
706.525
813.405
899.467
943.895
926.707
839.174
686.636
489.054
277.782
82.143
-75.32
-180.299
-235.139
-249.433
-234.401
-205.536
-170.913
-136.764
-112.026
-98.305
-96.625
-104.306
-111.382
-113.732
-110.618
-103.247
-97.406
-94.674
-93.103
-91.29
-87.074
-79.962
-71.273
-61.914
-52.594
-44.093
-36.982
-31.596
-28.126
-26.476
-26.329
-27.45
-29.667
-32.739
-36.391
-40.357
-44.368
-48.23
-51.809
-54.969
-57.6
-59.62
-60.959
-61.579
-61.455
-60.588
-59.005
-56.748
-53.885
-50.493
-46.663
-42.514
-38.163
-33.713
-29.255
-24.859
-20.57
-16.425
-12.452
-8.663
-5.071
-1.68
1.517
4.527
7.362
10.044
12.596
15.057
17.463
19.846
22.229
24.633
27.068
29.545
32.072
34.649
37.278
39.962
42.703
45.507
48.377
51.314
54.318
57.388
60.521
63.712
66.96
70.261
73.61
77.004
80.437
83.905
87.402
90.92
94.449
97.977
101.493
104.983
108.434
111.83
115.156
118.396
121.535
124.559
127.453
130.201
132.79
135.205
137.434
139.464
141.282
142.879
144.241
145.361
146.229
146.836
147.177
147.245
147.035
146.545
145.772
144.717
143.379
141.761
139.866
137.701
135.271
132.584
129.65
126.479
123.085
119.478
115.675
111.689
107.536
103.232
98.792
94.234
89.575
84.83
80.015
75.149
70.247
65.324
60.398
55.484
50.596
45.751
40.962
36.243
31.608
27.069
22.639
18.328
14.147
10.105
6.21
2.47
-1.109
-4.522
-7.766
-10.837
-13.735
-16.458
-19.007
-21.382
-23.587
-25.624
-27.497
-29.208
-30.764
-32.167
-33.424
-34.539
-35.518
-36.365
-37.087
-37.69
-38.177
-38.557
-38.833
-39.013
-39.102
-39.106
-39.031
-38.882
-38.666
-38.386
-38.049
-37.659
-37.219
-36.735
-36.208
-35.643
-35.042
-34.407
-33.74
-33.043
-32.318
-31.564
-30.784
-29.978
-29.148
-28.293
-27.417
-26.52
-25.605
-24.674
-23.729
-22.775
-21.813
-20.848
-19.883
-18.923
-17.971
-17.031
-16.108
-15.206
-14.33
-13.486
-12.678
-11.91
-11.19
-10.522
-9.911
-9.364
-8.886
-8.481
-8.157
-7.919
-7.772
-7.722
-7.774
-7.932
-8.202
-8.586
-9.089
-9.711
-10.455
-11.32
-12.306
-13.412
-14.634
-15.969
-17.414
-18.963
-20.61
-22.348
-24.17
-26.068
-28.033
-30.054
-32.122
-34.226
-36.354
-38.494
-40.634
-42.761
-44.861
-46.923
-48.93
-50.871
-52.731
-54.495
-56.149
-57.679
-59.071
-60.312
-61.39
-62.292
-63.008
-63.528
-63.845
-63.951
-63.84
-63.509
-62.953
-62.172
-61.164
-59.933
-58.48
-56.81
-54.929
-52.846
-50.569
-48.11
-45.481
-42.697
-39.773
-36.725
-33.572
-30.334
-27.032
-23.687
-20.322
-16.959
-13.621
-10.332
-7.116
-3.995
-0.993
1.868
4.566
7.077
9.38
11.457
13.289
14.865
16.175
17.21
17.959
18.414
18.565
18.407
17.94
17.159
16.068
14.673
12.991
11.058
8.912
6.592
4.136
1.576
-1.055
-3.717
-6.366
-8.952
-11.426
-13.743
-15.864
-17.745
-19.35
-20.655
-21.681
-22.502
-23.208
-23.892
-24.627
-25.45
-26.428
-27.653
-29.21
-31.19
-33.671
-36.664
-40.257
-44.645
-49.819
-55.659
-61.885
-67.86
-73.034
-77.078
-79.368
-79.178
-76.426
-71.209
-63.954
-56.136
-48.844
-42.628
-39.07
-38.942
-40.394
-41.573
-40.206
-34.23
-26.596
-20.364
-13.121
1.07
32.868
93.468
184.941
302.16
435.539
572.496
703.43
818.258
905.825
953.758
947.657
881.665
757.588
586.314
391.106
195.407
21.683
-110.378
-192.742
-225.405
-214.897
-176.486
-126.211
-78.291
-45.968
-32.964
-36.493
-50.192
-62.516
-68.119
-67.423
-62.653
-59.787
-60.721
-63.227
-65.532
-65.293
-61.807
-56.276
-49.618
-42.56
-35.887
-30.179
-25.729
-22.695
-20.998
-20.376
-20.708
-21.951
-23.986
-26.653
-29.795
-33.235
-36.846
-40.556
-44.259
-47.859
-51.299
-54.525
-57.523
-60.295
-62.835
-65.118
-67.1
-68.731
-69.954
-70.739
-71.084
-71.004
-70.533
-69.706
-68.562
-67.128
-65.426
-63.467
-61.253
-58.78
-56.046
-53.064
-49.862
-46.486
-42.993
-39.424
-35.805
-32.154
-28.476
-24.775
-21.049
-17.294
-13.501
-9.669
-5.801
-1.902
2.017
5.955
9.916
13.911
17.957
22.065
26.238
30.477
34.78
39.138
43.544
47.982
52.434
56.882
61.312
65.71
70.065
74.363
78.588
82.722
86.749
90.65
94.41
98.012
101.439
104.676
107.709
110.525
113.113
115.463
117.564
119.405
120.979
122.275
123.289
124.013
124.443
124.576
124.408
123.941
123.176
122.114
120.76
119.118
117.196
115.002
112.543
109.831
106.876
103.69
100.286
96.677
92.878
88.904
84.771
80.495
76.093
71.581
66.979
62.302
57.569
52.798
48.004
43.205
38.417
33.656
28.937
24.274
19.681
15.171
10.756
6.446
2.251
-1.819
-5.757
-9.555
-13.208
-16.709
-20.057
-23.246
-26.274
-29.141
-31.845
-34.386
-36.766
-38.986
-41.049
-42.958
-44.717
-46.331
-47.805
-49.145
-50.359
-51.452
-52.434
-53.31
-54.089
-54.779
-55.388
-55.923
-56.393
-56.805
-57.166
-57.483
-57.763
-58.013
-58.239
-58.446
-58.64
-58.826
-59.007
-59.189
-59.374
-59.566
-59.768
-59.982
-60.21
-60.455
-60.716
-60.996
-61.293
-61.609
-61.94
-62.287
-62.646
-63.015
-63.39
-63.769
-64.147
-64.521
-64.885
-65.236
-65.57
-65.881
-66.166
-66.42
-66.639
-66.819
-66.956
-67.048
-67.092
-67.085
-67.024
-66.908
-66.734
-66.502
-66.21
-65.857
-65.442
-64.965
-64.426
-63.826
-63.164
-62.444
-61.667
-60.836
-59.956
-59.03
-58.063
-57.059
-56.026
-54.968
-53.891
-52.804
-51.711
-50.619
-49.534
-48.464
-47.413
-46.386
-45.388
-44.421
-43.49
-42.597
-41.745
-40.937
-40.174
-39.46
-38.798
-38.19
-37.637
-37.141
-36.701
-36.318
-35.988
-35.71
-35.48
-35.293
-35.142
-35.023
-34.93
-34.857
-34.796
-34.736
-34.665
-34.572
-34.454
-34.305
-34.123
-33.91
-33.668
-33.408
-33.147
-32.895
-32.666
-32.467
-32.303
-32.183
-32.114
-32.1
-32.152
-32.268
-32.439
-32.653
-32.891
-33.124
-33.322
-33.448
-33.451
-33.298
-32.963
-32.428
-31.693
-30.756
-29.619
-28.3
-26.818
-25.199
-23.494
-21.758
-20.055
-18.478
-17.107
-16.028
-15.345
-15.131
-15.441
-16.317
-17.761
-19.77
-22.331
-25.41
-28.971
-32.965
-37.317
-41.939
-46.728
-51.55
-56.287
-60.821
-65.017
-68.775
-72.008
-74.668
-76.781
-78.388
-79.539
-80.288
-80.65
-80.667
-80.433
-80.054
-79.657
-79.375
-79.271
-79.465
-80.213
-81.627
-83.651
-86.043
-88.201
-89.531
-89.679
-88.169
-84.369
-78.062
-69.493
-59.34
-49.124
-40.436
-34.308
-31.957
-34.818
-42.372
-52.111
-61.413
-66.283
-65.477
-61.875
-54.429
-39.185
-8.98
46.96
132.055
241.259
365.279
492.357
614.187
725.864
820.442
886.697
909.782
875.653
778.954
625.797
433.641
230.076
42.018
-108.686
-207.421
-255.898
-262.822
-238.738
-199.506
-154.24
-110.555
-79.317
-62.853
-61.287
-71.269
-82.344
-89.829
-92.631
-91.385
-90.805
-91.978
-93.609
-94.867
-93.903
-90.447
-85.652
-80.295
-75.346
-71.721
-69.66
-69.187
-70.23
-72.462
-75.589
-79.428
-83.752
-88.304
-92.893
-97.339
-101.481
-105.229
-108.481
-111.137
-113.14
-114.449
-115.048
-114.957
-114.203
-112.82
-110.882
-108.456
-105.605
-102.394
-98.883
-95.136
-91.229
-87.232
-83.2
-79.176
-75.19
-71.258
-67.401
-63.625
-59.93
-56.313
-52.756
-49.248
-45.783
-42.354
-38.957
-35.586
-32.231
-28.881
-25.536
-22.194
-18.854
-15.518
-12.186
-8.857
-5.534
-2.222
1.075
4.355
7.616
10.857
14.077
17.274
20.447
23.594
26.712
29.802
32.86
35.883
38.866
41.805
44.695
47.532
50.31
53.023
55.665
58.229
60.709
63.098
65.39
67.576
69.651
71.607
73.437
75.134
76.693
78.106
79.369
80.474
81.418
82.194
82.799
83.227
83.476
83.541
83.42
83.111
82.613
81.925
81.047
79.982
78.73
77.295
75.68
73.891
71.933
69.812
67.535
65.109
62.544
59.846
57.026
54.093
51.057
47.929
44.719
41.437
38.094
34.701
31.269
27.808
24.329
20.843
17.361
13.894
10.451
7.042
3.679
0.37
-2.876
-6.051
-9.146
-12.153
-15.068
-17.883
-20.594
-23.197
-25.687
-28.064
-30.323
-32.465
-34.489
-36.395
-38.184
-39.857
-41.415
-42.861
-44.196
-45.425
-46.549
-47.572
-48.497
-49.328
-50.068
-50.721
-51.292
-51.783
-52.2
-52.547
-52.827
-53.045
-53.205
-53.311
-53.366
-53.375
-53.34
-53.265
-53.152
-53.003
-52.82
-52.605
-52.359
-52.083
-51.778
-51.444
-51.082
-50.691
-50.273
-49.826
-49.353
-48.852
-48.325
-47.772
-47.195
-46.594
-45.971
-45.327
-44.665
-43.987
-43.295
-42.591
-41.877
-41.158
-40.435
-39.712
-38.991
-38.276
-37.571
-36.878
-36.202
-35.546
-34.915
-34.311
-33.74
-33.205
-32.711
-32.26
-31.858
-31.507
-31.211
-30.973
-30.796
-30.683
-30.634
-30.653
-30.738
-30.891
-31.111
-31.397
-31.747
-32.159
-32.63
-33.156
-33.734
-34.358
-35.025
-35.729
-36.464
-37.225
-38.005
-38.797
-39.594
-40.39
-41.176
-41.946
-42.691
-43.405
-44.078
-44.705
-45.276
-45.784
-46.221
-46.58
-46.854
-47.034
-47.116
-47.092
-46.957
-46.707
-46.337
-45.844
-45.226
-44.481
-43.608
-42.608
-41.48
-40.228
-38.854
-37.362
-35.756
-34.044
-32.231
-30.325
-28.336
-26.274
-24.151
-21.977
-19.766
-17.533
-15.292
-13.058
-10.846
-8.671
-6.548
-4.492
-2.52
-0.645
1.116
2.747
4.232
5.556
6.703
7.661
8.42
8.974
9.314
9.434
9.324
8.977
8.386
7.545
6.447
5.092
3.482
1.628
-0.438
-2.687
-5.083
-7.593
-10.184
-12.825
-15.477
-18.101
-20.657
-23.096
-25.375
-27.452
-29.278
-30.824
-32.075
-33.043
-33.796
-34.417
-34.993
-35.613
-36.337
-37.236
-38.421
-39.996
-42.064
-44.74
-48.067
-52.124
-57.111
-63.046
-69.783
-77.013
-84.101
-90.464
-95.781
-99.533
-101.034
-100.106
-96.86
-91.932
-86.791
-82.364
-79.092
-77.91
-79.669
-84.382
-90.458
-94.187
-91.265
-78.459
-56.8
-30.067
1.031
36.423
81.711
148.018
239.513
357.037
494.637
635.018
760.968
856.753
907.8
906.279
851.401
746.277
601.883
437.306
271.651
125.8
16.198
-53.511
-86.592
-95.672
-97.096
-98.292
-101.413
-103.066
-96.81
-83.25
-66.735
-51.389
-41.448
-37.655
-38.269
-42.102
-47.813
-53.608
-58
-60.063
-59.451
-56.567
-52.244
-47.117
-41.701
-36.691
-32.772
-30.333
-29.51
-30.164
-31.957
-34.625
-37.965
-41.743
-45.729
-49.728
-53.557
-57.083
-60.22
-62.862
-64.922
-66.354
-67.125
-67.241
-66.737
-65.656
-64.048
-61.983
-59.521
-56.714
-53.612
-50.253
-46.681
-42.949
-39.113
-35.228
-31.347
-27.505
-23.734
-20.056
-16.476
-12.996
-9.615
-6.321
-3.112
-0.004
2.987
5.821
8.456
10.873
13.064
15.034
16.811
18.426
19.918
21.343
22.742
24.146
25.589
27.086
28.655
30.334
32.165
34.206
36.53
39.18
42.184
45.558
49.282
53.325
57.638
62.14
66.763
71.452
76.156
80.842
85.48
90.021
94.418
98.615
102.538
106.133
109.355
112.162
114.54
116.487
118.016
119.166
119.974
120.46
120.638
120.514
120.086
119.363
118.352
117.057
115.497
113.687
111.64
109.373
106.895
104.207
101.304
98.174
94.803
91.19
87.339
83.258
78.963
74.468
69.792
64.96
59.993
54.913
49.739
44.491
39.187
33.853
28.51
23.185
17.902
12.684
7.552
2.527
-2.375
-7.138
-11.747
-16.193
-20.464
-24.55
-28.442
-32.131
-35.608
-38.867
-41.902
-44.706
-47.278
-49.613
-51.712
-53.575
-55.203
-56.599
-57.768
-58.715
-59.447
-59.97
-60.293
-60.425
-60.376
-60.156
-59.776
-59.246
-58.577
-57.781
-56.868
-55.849
-54.735
-53.535
-52.261
-50.92
-49.522
-48.077
-46.591
-45.075
-43.534
-41.977
-40.412
-38.845
-37.283
-35.732
-34.199
-32.689
-31.207
-29.756
-28.342
-26.966
-25.633
-24.343
-23.099
-21.901
-20.752
-19.652
-18.602
-17.601
-16.65
-15.75
-14.9
-14.1
-13.351
-12.654
-12.007
-11.412
-10.868
-10.378
-9.94
-9.556
-9.226
-8.95
-8.728
-8.561
-8.448
-8.388
-8.38
-8.424
-8.517
-8.66
-8.85
-9.087
-9.369
-9.695
-10.063
-10.472
-10.919
-11.403
-11.92
-12.469
-13.047
-13.65
-14.276
-14.92
-15.579
-16.249
-16.926
-17.605
-18.281
-18.948
-19.6
-20.232
-20.838
-21.411
-21.944
-22.433
-22.872
-23.256
-23.582
-23.845
-24.041
-24.167
-24.219
-24.193
-24.084
-23.884
-23.589
-23.195
-22.698
-22.095
-21.383
-20.56
-19.625
-18.58
-17.426
-16.162
-14.786
-13.291
-11.676
-9.949
-8.116
-6.194
-4.196
-2.133
-0.021
2.119
4.272
6.428
8.583
10.748
12.921
15.095
17.254
19.371
21.43
23.428
25.363
27.239
29.06
30.825
32.546
34.248
35.936
37.598
39.199
40.679
41.995
43.122
44.048
44.773
45.287
45.564
45.575
45.296
44.698
43.76
42.439
40.679
38.463
35.809
32.78
29.474
25.975
22.341
18.624
14.871
11.136
7.489
4.006
0.751
-2.21
-4.811
-6.971
-8.614
-9.726
-10.345
-10.578
-10.56
-10.387
-10.16
-9.995
-10.023
-10.386
-11.214
-12.6
-14.66
-17.596
-21.534
-26.442
-32.065
-37.913
-43.472
-48.352
-52.13
-54.162
-53.955
-51.555
-47.629
-43.37
-39.911
-37.876
-37.691
-40.239
-46.395
-54.862
-62.219
-64.958
-59.36
-45.641
-27.769
-4.833
26.614
72.666
142.826
238.342
353.35
479.768
607.056
728.298
839.783
935.211
1003.345
1028.222
994.231
894.132
733.014
529.853
313.045
110.284
-54.33
-165.048
-218.77
-219.569
-178.704
-114.688
-46.174
8.792
35.854
32.603
5.783
-31.189
-62.434
-80.63
-85.795
-82.912
-79.636
-78.431
-78.508
-78.325
-75.384
-69.536
-62.089
-53.921
-46.148
-39.552
-34.178
-30.062
-27.184
-25.328
-24.419
-24.478
-25.439
-27.191
-29.624
-32.598
-35.985
-39.698
-43.621
-47.605
-51.515
-55.235
-58.705
-61.896
-64.78
-67.313
-69.423
-71.021
-72.054
-72.507
-72.38
-71.702
-70.497
-68.797
-66.652
-64.126
-61.279
-58.16
-54.797
-51.198
-47.387
-43.4
-39.291
-35.134
-30.981
-26.864
-22.812
-18.843
-14.971
-11.212
-7.563
-4.008
-0.538
2.854
6.166
9.387
12.521
15.574
18.56
21.499
24.405
27.284
30.142
32.984
35.81
38.62
41.406
44.157
46.861
49.511
52.102
54.63
57.089
59.469
61.763
63.962
66.056
68.038
69.899
71.631
73.226
74.676
75.977
77.123
78.109
78.93
79.579
80.052
80.342
80.445
80.357
80.072
79.589
78.904
78.015
76.923
75.628
74.131
72.433
70.538
68.449
66.17
63.708
61.067
58.256
55.282
52.153
48.879
45.47
41.935
38.287
34.537
30.697
26.781
22.801
18.77
14.702
10.61
6.508
2.408
-1.675
-5.729
-9.741
-13.698
-17.589
-21.401
-25.124
-28.747
-32.261
-35.657
-38.927
-42.063
-45.06
-47.912
-50.614
-53.163
-55.555
-57.788
-59.862
-61.776
-63.531
-65.128
-66.571
-67.863
-69.009
-70.013
-70.882
-71.621
-72.239
-72.742
-73.138
-73.436
-73.644
-73.771
-73.826
-73.818
-73.757
-73.65
-73.507
-73.337
-73.147
-72.946
-72.741
-72.539
-72.347
-72.17
-72.013
-71.882
-71.781
-71.713
-71.682
-71.689
-71.737
-71.826
-71.957
-72.129
-72.34
-72.59
-72.875
-73.194
-73.543
-73.919
-74.317
-74.734
-75.167
-75.609
-76.057
-76.506
-76.951
-77.388
-77.811
-78.218
-78.603
-78.963
-79.296
-79.597
-79.866
-80.1
-80.298
-80.459
-80.582
-80.667
-80.714
-80.724
-80.699
-80.639
-80.548
-80.428
-80.283
-80.116
-79.932
-79.736
-79.531
-79.323
-79.117
-78.918
-78.732
-78.562
-78.416
-78.297
-78.212
-78.164
-78.159
-78.201
-78.294
-78.441
-78.645
-78.907
-79.229
-79.612
-80.056
-80.56
-81.124
-81.745
-82.422
-83.154
-83.938
-84.773
-85.655
-86.58
-87.546
-88.545
-89.57
-90.614
-91.667
-92.719
-93.763
-94.788
-95.788
-96.753
-97.675
-98.549
-99.369
-100.125
-100.809
-101.407
-101.909
-102.31
-102.608
-102.807
-102.915
-102.939
-102.886
-102.771
-102.601
-102.381
-102.111
-101.777
-101.367
-100.878
-100.314
-99.689
-99.017
-98.298
-97.53
-96.708
-95.817
-94.845
-93.777
-92.583
-91.247
-89.775
-88.186
-86.527
-84.854
-83.202
-81.596
-80.05
-78.574
-77.199
-75.956
-74.869
-73.977
-73.322
-72.944
-72.907
-73.244
-73.941
-74.964
-76.243
-77.684
-79.228
-80.816
-82.386
-83.892
-85.265
-86.435
-87.359
-87.976
-88.219
-88.03
-87.353
-86.194
-84.628
-82.755
-80.684
-78.526
-76.39
-74.405
-72.706
-71.407
-70.629
-70.44
-70.968
-72.463
-74.973
-78.417
-82.596
-86.947
-90.938
-94.25
-96.213
-95.999
-93.547
-88.979
-82.714
-76.342
-71.052
-67.435
-67.252
-71.092
-76.433
-81.149
-82.892
-80.298
-77.869
-78.691
-78.968
-70.089
-38.058
29.052
131.716
261.827
406.36
551.092
686.212
802.037
888.199
933.679
925.775
859.998
739.219
573.517
383.841
193.05
23.324
-106.658
-188.214
-224.212
-224.358
-199.454
-161.934
-119.069
-76.961
-46.696
-33.012
-37.508
-56.729
-78.011
-93.852
-101.353
-101.079
-99.309
-98.628
-98.577
-98.511
-96.223
-91.309
-85.02
-78.169
-71.718
-66.4
-62.257
-59.268
-57.351
-56.216
-55.631
-55.426
-55.443
-55.521
-55.544
-55.42
-55.053
-54.389
-53.398
-52.045
-50.343
-48.351
-46.137
-43.768
-41.328
-38.888
-36.523
-34.32
-32.334
-30.599
-29.146
-27.987
-27.133
-26.587
-26.321
-26.273
-26.372
-26.529
-26.664
-26.717
-26.623
-26.323
-25.767
-24.908
-23.723
-22.209
-20.362
-18.181
-15.68
-12.875
-9.804
-6.53
-3.105
0.424
4.017
7.652
11.305
14.954
18.59
22.209
25.812
29.41
33.004
36.594
40.185
43.784
47.406
51.072
54.794
58.576
62.417
66.312
70.253
74.229
78.223
82.213
86.177
90.095
93.949
97.722
101.397
104.956
108.379
111.649
114.748
117.661
120.374
122.874
125.148
127.185
128.977
130.517
131.797
132.812
133.556
134.022
134.207
134.109
133.725
133.055
132.1
130.863
129.35
127.566
125.521
123.223
120.683
117.912
114.923
111.729
108.344
104.782
101.058
97.187
93.185
89.066
84.845
80.538
76.161
71.727
67.253
62.753
58.241
53.731
49.237
44.774
40.352
35.985
31.684
27.461
23.325
19.285
15.352
11.532
7.831
4.255
0.809
-2.505
-5.684
-8.725
-11.63
-14.398
-17.029
-19.525
-21.888
-24.119
-26.221
-28.198
-30.051
-31.786
-33.405
-34.913
-36.313
-37.611
-38.809
-39.914
-40.928
-41.856
-42.703
-43.471
-44.165
-44.789
-45.346
-45.839
-46.271
-46.644
-46.961
-47.224
-47.433
-47.589
-47.694
-47.746
-47.747
-47.695
-47.591
-47.434
-47.224
-46.959
-46.639
-46.265
-45.836
-45.35
-44.809
-44.213
-43.561
-42.855
-42.096
-41.285
-40.424
-39.516
-38.564
-37.571
-36.541
-35.478
-34.386
-33.271
-32.138
-30.992
-29.84
-28.689
-27.546
-26.418
-25.312
-24.238
-23.201
-22.21
-21.274
-20.4
-19.597
-18.872
-18.232
-17.686
-17.24
-16.901
-16.675
-16.569
-16.585
-16.729
-17.003
-17.408
-17.945
-18.613
-19.411
-20.336
-21.384
-22.553
-23.836
-25.229
-26.725
-28.317
-29.998
-31.757
-33.582
-35.462
-37.385
-39.337
-41.306
-43.276
-45.232
-47.158
-49.042
-50.868
-52.618
-54.273
-55.809
-57.207
-58.453
-59.535
-60.445
-61.175
-61.724
-62.094
-62.297
-62.342
-62.238
-61.986
-61.584
-61.032
-60.337
-59.511
-58.572
-57.529
-56.376
-55.111
-53.726
-52.207
-50.533
-48.666
-46.549
-44.139
-41.412
-38.358
-34.99
-31.319
-27.351
-23.099
-18.578
-13.822
-8.887
-3.835
1.274
6.357
11.322
16.042
20.359
24.143
27.294
29.736
31.427
32.325
32.388
31.592
29.937
27.443
24.169
20.181
15.547
10.362
4.742
-1.162
-7.161
-13.09
-18.816
-24.229
-29.24
-33.769
-37.727
-41.053
-43.721
-45.729
-47.131
-48.012
-48.456
-48.581
-48.503
-48.331
-48.221
-48.343
-48.826
-49.791
-51.34
-53.487
-56.338
-60.103
-64.762
-70.129
-75.824
-81.13
-85.436
-88.413
-89.49
-87.946
-83.62
-76.702
-67.961
-59.027
-51.221
-45.314
-42.303
-43.293
-47.377
-51.865
-53.73
-48.58
-35.097
-16.856
5.436
33.391
70.548
127.323
210.558
319.801
452.681
598.78
743.136
870.894
964.718
1008.387
991.486
912.342
776.745
598.91
399.99
201.037
23.64
-113.11
-199.726
-235.82
-228.939
-193.842
-146.327
-98.262
-59.993
-37.743
-31.315
-38.297
-51.486
-62.334
-67.922
-67.676
-64.128
-61.456
-59.878
-58.431
-56.171
-51.511
-44.662
-36.774
-28.531
-20.877
-14.587
-9.794
-6.522
-4.691
-4.026
-4.331
-5.47
-7.231
-9.37
-11.684
-14.006
-16.213
-18.221
-19.937
-21.278
-22.213
-22.771
-23.004
-22.963
-22.691
-22.201
-21.514
-20.678
-19.749
-18.778
-17.823
-16.909
-16.043
-15.258
-14.576
-13.999
-13.51
-13.049
-12.552
-11.975
-11.287
-10.471
-9.516
-8.395
-7.086
-5.583
-3.882
-1.996
0.048
2.244
4.59
7.075
9.688
12.401
15.186
18.035
20.945
23.918
26.954
30.051
33.204
36.422
39.716
43.097
46.583
50.179
53.885
57.701
61.625
65.651
69.774
73.981
78.252
82.57
86.917
91.276
95.631
99.96
104.239
108.446
112.56
116.556
120.417
124.12
127.647
130.98
134.101
136.996
139.652
142.055
144.192
146.051
147.62
148.889
149.849
150.493
150.813
150.806
150.467
149.796
148.794
147.463
145.808
143.834
141.548
138.957
136.073
132.905
129.465
125.766
121.823
117.65
113.263
108.679
103.913
98.985
93.91
88.708
83.395
77.991
72.513
66.979
61.407
55.817
50.225
44.649
39.107
33.616
28.192
22.85
17.607
12.475
7.469
2.6
-2.12
-6.68
-11.071
-15.284
-19.31
-23.143
-26.776
-30.203
-33.421
-36.425
-39.214
-41.784
-44.136
-46.269
-48.184
-49.883
-51.366
-52.638
-53.702
-54.562
-55.225
-55.695
-55.981
-56.09
-56.03
-55.81
-55.439
-54.928
-54.285
-53.522
-52.649
-51.676
-50.615
-49.476
-48.271
-47.011
-45.706
-44.369
-43.01
-41.641
-40.271
-38.912
-37.573
-36.265
-34.996
-33.777
-32.616
-31.522
-30.502
-29.564
-28.714
-27.958
-27.302
-26.749
-26.303
-25.965
-25.738
-25.623
-25.618
-25.725
-25.941
-26.264
-26.692
-27.224
-27.854
-28.579
-29.394
-30.295
-31.275
-32.33
-33.452
-34.636
-35.875
-37.161
-38.489
-39.851
-41.24
-42.648
-44.069
-45.494
-46.916
-48.329
-49.725
-51.099
-52.443
-53.753
-55.025
-56.254
-57.436
-58.568
-59.647
-60.671
-61.637
-62.543
-63.386
-64.164
-64.874
-65.516
-66.089
-66.591
-67.023
-67.384
-67.676
-67.899
-68.056
-68.147
-68.172
-68.131
-68.025
-67.854
-67.618
-67.317
-66.951
-66.518
-66.019
-65.456
-64.829
-64.135
-63.372
-62.534
-61.619
-60.632
-59.575
-58.456
-57.284
-56.071
-54.837
-53.606
-52.397
-51.228
-50.114
-49.063
-48.09
-47.207
-46.424
-45.753
-45.199
-44.754
-44.408
-44.149
-43.946
-43.774
-43.597
-43.365
-43.048
-42.623
-42.072
-41.389
-40.57
-39.616
-38.545
-37.382
-36.155
-34.915
-33.716
-32.621
-31.716
-31.071
-30.744
-30.805
-31.295
-32.243
-33.674
-35.59
-37.979
-40.818
-44.058
-47.637
-51.496
-55.553
-59.712
-63.877
-67.933
-71.817
-75.531
-79.075
-82.479
-85.768
-88.937
-92.033
-95.146
-98.358
-101.766
-105.47
-109.502
-113.991
-119.193
-125.149
-131.781
-138.837
-145.688
-151.801
-156.868
-160.269
-161.264
-159.773
-155.92
-150.203
-144.176
-138.965
-135.132
-134.181
-136.723
-140.762
-144.237
-144.671
-140.097
-133.48
-127.554
-119.696
-103.372
-67.322
-0.83
97.313
220.595
357.471
493.338
618.273
724.122
802.29
847.208
849.504
802.466
707.532
567.047
393.497
206.919
25.265
-129.848
-241.577
-304.938
-321.867
-301.262
-257.504
-204.331
-151.895
-110.667
-87.615
-82.34
-91.99
-108.855
-123.369
-131.841
-133.662
-130.632
-126.467
-122.348
-117.92
-112.698
-105.748
-97.296
-88.349
-79.853
-72.833
-67.703
-64.404
-62.8
-62.631
-63.702
-65.851
-68.844
-72.412
-76.314
-80.342
-84.331
-88.145
-91.635
-94.669
-97.154
-99.027
-100.27
-100.878
-100.852
-100.187
-98.897
-97.023
-94.623
-91.778
-88.583
-85.129
-81.503
-77.796
-74.085
-70.427
-66.862
-63.407
-60.061
-56.825
-53.699
-50.684
-47.778
-44.971
-42.246
-39.582
-36.948
-34.32
-31.671
-28.972
-26.201
-23.339
-20.377
-17.31
-14.142
-10.871
-7.499
-4.023
-0.443
3.241
7.026
10.91
14.888
18.955
23.103
27.323
31.606
35.941
40.318
44.727
49.157
53.596
58.031
62.449
66.834
71.17
75.441
79.627
83.712
87.676
91.501
95.17
98.666
101.971
105.069
107.944
110.581
112.968
115.089
116.934
118.491
119.752
120.706
121.348
121.671
121.672
121.348
120.699
119.726
118.43
116.816
114.889
112.657
110.128
107.311
104.217
100.858
97.248
93.401
89.333
85.059
80.599
75.968
71.186
66.272
61.245
56.124
50.928
45.677
40.392
35.09
29.792
24.517
19.283
14.108
9.009
4.004
-0.892
-5.665
-10.3
-14.784
-19.105
-23.253
-27.218
-30.99
-34.563
-37.928
-41.08
-44.015
-46.729
-49.219
-51.483
-53.522
-55.334
-56.923
-58.288
-59.435
-60.366
-61.087
-61.602
-61.918
-62.043
-61.984
-61.75
-61.349
-60.791
-60.085
-59.242
-58.272
-57.185
-55.992
-54.701
-53.325
-51.873
-50.355
-48.781
-47.162
-45.506
-43.823
-42.122
-40.413
-38.705
-37.004
-35.321
-33.662
-32.036
-30.448
-28.906
-27.416
-25.983
-24.614
-23.313
-22.083
-20.93
-19.855
-18.861
-17.951
-17.126
-16.387
-15.735
-15.17
-14.693
-14.304
-14.002
-13.786
-13.657
-13.612
-13.65
-13.768
-13.966
-14.239
-14.585
-15.002
-15.484
-16.028
-16.631
-17.288
-17.995
-18.748
-19.541
-20.371
-21.231
-22.117
-23.024
-23.947
-24.88
-25.819
-26.759
-27.695
-28.621
-29.533
-30.426
-31.293
-32.13
-32.931
-33.688
-34.396
-35.048
-35.64
-36.164
-36.617
-36.993
-37.289
-37.504
-37.633
-37.675
-37.627
-37.485
-37.245
-36.905
-36.461
-35.909
-35.246
-34.468
-33.572
-32.558
-31.428
-30.179
-28.81
-27.316
-25.698
-23.959
-22.106
-20.147
-18.095
-15.963
-13.769
-11.54
-9.303
-7.082
-4.898
-2.763
-0.687
1.316
3.234
5.051
6.76
8.369
9.889
11.328
12.7
14.015
15.296
16.583
17.91
19.295
20.753
22.271
23.831
25.422
27.025
28.613
30.148
31.564
32.785
33.75
34.4
34.674
34.507
33.81
32.513
30.584
28.015
24.824
21.048
16.72
11.881
6.606
0.985
-4.866
-10.805
-16.715
-22.487
-28.003
-33.15
-37.803
-41.874
-45.351
-48.265
-50.677
-52.649
-54.216
-55.442
-56.463
-57.43
-58.507
-59.872
-61.617
-63.872
-66.917
-70.881
-75.708
-81.171
-86.694
-91.682
-95.814
-98.642
-99.467
-97.993
-94.366
-89.153
-83.743
-79.54
-77.311
-77.847
-82.316
-90.309
-99.298
-106.492
-107.97
-101.687
-90.392
-75.352
-53.965
-21.326
31.9
113.632
222.412
352.667
496.059
640.57
777.819
897.47
983.52
1021.134
996.528
904.775
756.014
569.199
370.273
184.698
28.963
-86.049
-157.496
-189.434
-185.962
-156.329
-112.388
-66.04
-32.397
-19.17
-25.913
-46.167
-66.171
-77.966
-80.643
-76.866
-73.948
-74.775
-77.611
-80.632
-81.129
-78.327
-73.504
-67.589
-61.371
-55.613
-50.778
-47.121
-44.777
-43.616
-43.342
-43.767
-44.779
-46.224
-47.95
-49.823
-51.704
-53.501
-55.165
-56.622
-57.814
-58.717
-59.317
-59.632
-59.691
-59.521
-59.156
-58.638
-57.996
-57.245
-56.378
-55.369
-54.217
-52.931
-51.523
-50.001
-48.349
-46.545
-44.575
-42.425
-40.085
-37.543
-34.783
-31.791
-28.571
-25.145
-21.545
-17.823
-14.008
-10.122
-6.185
-2.217
1.758
5.717
9.649
13.552
17.423
21.259
25.052
28.795
32.493
36.154
39.791
43.421
47.051
50.682
54.318
57.957
61.597
65.234
68.856
72.45
76.002
79.501
82.933
86.287
89.547
92.696
95.717
98.59
101.3
103.829
106.16
108.281
110.174
111.827
113.225
114.35
115.191
115.738
115.984
115.925
115.559
114.89
113.928
112.688
111.186
109.434
107.446
105.227
102.79
100.146
97.304
94.277
91.069
87.676
84.092
80.307
76.298
72.044
67.514
62.665
57.474
51.921
45.997
39.707
33.057
26.063
18.758
11.176
3.367
-4.602
-12.656
-20.714
-28.665
-36.408
-43.838
-50.835
-57.307
-63.175
-68.369
-72.842
-76.561
-79.499
-81.662
-83.066
-83.734
-83.718
-83.08
-81.895
-80.27
-78.301
-76.082
-73.716
-71.284
-68.857
-66.5
-64.261
-62.172
-60.265
-58.549
-57.027
-55.701
-54.556
-53.568
-52.704
-51.911
-51.147
-50.381
-49.577
-48.714
-47.776
-46.75
-45.632
-44.433
-43.157
-41.815
-40.424
-38.992
-37.535
-36.075
-34.633
-33.238
-31.913
-30.672
-29.529
-28.491
-27.563
-26.75
-26.05
-25.456
-24.961
-24.562
-24.254
-24.033
-23.896
-23.836
-23.847
-23.924
-24.06
-24.251
-24.495
-24.786
-25.122
-25.501
-25.919
-26.376
-26.871
-27.399
-27.958
-28.543
-29.15
-29.777
-30.42
-31.074
-31.737
-32.404
-33.074
-33.744
-34.413
-35.078
-35.737
-36.39
-37.034
-37.668
-38.291
-38.9
-39.495
-40.072
-40.629
-41.162
-41.67
-42.147
-42.592
-43.001
-43.371
-43.7
-43.986
-44.228
-44.424
-44.573
-44.673
-44.722
-44.719
-44.66
-44.543
-44.365
-44.123
-43.813
-43.43
-42.975
-42.442
-41.83
-41.134
-40.347
-39.465
-38.489
-37.422
-36.269
-35.038
-33.739
-32.387
-31.003
-29.607
-28.218
-26.85
-25.515
-24.223
-22.982
-21.803
-20.698
-19.67
-18.712
-17.814
-16.959
-16.127
-15.3
-14.448
-13.533
-12.52
-11.385
-10.112
-8.699
-7.15
-5.48
-3.709
-1.858
0.031
1.904
3.697
5.336
6.747
7.868
8.617
8.906
8.662
7.818
6.326
4.162
1.317
-2.19
-6.32
-11.018
-16.205
-21.787
-27.652
-33.669
-39.707
-45.652
-51.371
-56.731
-61.615
-65.9
-69.481
-72.302
-74.336
-75.616
-76.218
-76.22
-75.7
-74.762
-73.533
-72.141
-70.722
-69.399
-68.296
-67.559
-67.398
-68.062
-69.643
-72.221
-75.708
-79.469
-82.908
-85.551
-86.465
-85.683
-83.618
-79.134
-72.45
-63.201
-50.585
-38.711
-30.42
-27.87
-33.529
-42.862
-53.129
-64.863
-76.142
-86.713
-90.287
-72.014
-20.738
67.911
189.904
330.645
475.507
616.949
749.497
867.105
961.581
1017.813
1019.647
960.462
842.04
676.954
487.949
297.498
126.141
-10.799
-106.463
-160.871
-179.719
-171.524
-146.97
-115.776
-87.143
-68.774
-62.865
-67.88
-77.252
-83.999
-85.821
-83.753
-82.302
-84.716
-90.426
-96.998
-101.43
-102.434
-100.492
-96.571
-91.631
-86.236
-80.858
-76.153
-72.526
-70.041
-68.567
-67.802
-67.508
-67.548
-67.742
-67.883
-67.806
-67.391
-66.592
-65.419
-63.882
-62.007
-59.834
-57.407
-54.786
-52.04
-49.241
-46.466
-43.795
-41.296
-39.019
-36.995
-35.247
-33.796
-32.637
-31.743
-31.056
-30.475
-29.918
-29.319
-28.616
-27.762
-26.705
-25.393
-23.789
-21.874
-19.637
-17.079
-14.203
-11.007
-7.51
-3.749
0.222
4.327
8.507
12.723
16.942
21.141
25.302
29.403
33.438
37.415
41.336
45.205
49.021
52.777
56.476
60.128
63.745
67.348
70.946
74.539
78.125
81.698
85.247
88.761
92.221
95.604
98.887
102.053
105.084
107.968
110.689
113.229
115.571
117.701
119.603
121.266
122.678
123.827
124.706
125.309
125.631
125.671
125.428
124.901
124.091
122.999
121.627
119.98
118.063
115.879
113.438
110.747
107.817
104.659
101.286
97.711
93.948
90.012
85.917
81.681
77.317
72.844
68.276
63.63
58.923
54.17
49.387
44.59
39.794
35.013
30.26
25.548
20.889
16.294
11.772
7.333
2.984
-1.266
-5.412
-9.447
-13.366
-17.166
-20.842
-24.392
-27.816
-31.111
-34.278
-37.319
-40.234
-43.027
-45.699
-48.256
-50.699
-53.034
-55.265
-57.398
-59.438
-61.391
-63.262
-65.058
-66.783
-68.444
-70.045
-71.591
-73.087
-74.536
-75.941
-77.306
-78.634
-79.925
-81.183
-82.409
-83.604
-84.768
-85.903
-87.008
-88.082
-89.125
-90.135
-91.111
-92.05
-92.951
-93.81
-94.624
-95.391
-96.108
-96.77
-97.374
-97.916
-98.394
-98.802
-99.138
-99.399
-99.581
-99.683
-99.703
-99.64
-99.494
-99.264
-98.951
-98.557
-98.083
-97.532
-96.906
-96.209
-95.443
-94.612
-93.722
-92.776
-91.78
-90.74
-89.662
-88.553
-87.42
-86.271
-85.112
-83.951
-82.797
-81.655
-80.534
-79.442
-78.387
-77.374
-76.412
-75.507
-74.664
-73.888
-73.184
-72.554
-72.001
-71.527
-71.13
-70.811
-70.568
-70.398
-70.299
-70.267
-70.3
-70.393
-70.543
-70.744
-70.991
-71.278
-71.597
-71.938
-72.291
-72.645
-72.987
-73.308
-73.596
-73.841
-74.032
-74.161
-74.221
-74.202
-74.096
-73.893
-73.579
-73.144
-72.585
-71.901
-71.097
-70.185
-69.173
-68.073
-66.902
-65.674
-64.397
-63.073
-61.696
-60.259
-58.763
-57.218
-55.644
-54.06
-52.473
-50.887
-49.305
-47.718
-46.12
-44.504
-42.844
-41.13
-39.374
-37.603
-35.867
-34.227
-32.721
-31.376
-30.21
-29.236
-28.479
-27.97
-27.727
-27.783
-28.173
-28.937
-30.131
-31.788
-33.888
-36.388
-39.213
-42.266
-45.475
-48.776
-52.102
-55.391
-58.579
-61.591
-64.374
-66.866
-68.992
-70.677
-71.839
-72.445
-72.55
-72.239
-71.631
-70.849
-69.966
-69.08
-68.336
-67.866
-67.797
-68.259
-69.286
-70.981
-73.61
-77.225
-81.694
-86.709
-91.558
-95.596
-98.493
-99.654
-98.293
-94.288
-87.912
-79.892
-71.917
-65.277
-60.552
-58.916
-61.686
-67.798
-74.432
-78.524
-75.518
-64.726
-49.89
-30.235
-2.31
40.212
107.857
203.64
321.807
453.163
585.88
710.939
823.3
916.859
980.905
1000.553
961.391
856.856
692.323
486.664
269.967
71.371
-85.381
-185.67
-233.012
-238.992
-216.253
-179.715
-136.87
-91.689
-53.229
-29.105
-23.796
-38.035
-63.394
-87.944
-104.575
-110.71
-108.841
-104.52
-100.268
-96.183
-91.499
-84.647
-75.683
-65.814
-56.105
-47.638
-40.839
-35.621
-31.898
-29.548
-28.443
-28.472
-29.476
-31.267
-33.698
-36.657
-40.017
-43.653
-47.407
-51.102
-54.604
-57.824
-60.686
-63.129
-65.077
-66.422
-67.102
-67.102
-66.423
-65.093
-63.144
-60.603
-57.529
-54.001
-50.099
-45.902
-41.47
-36.832
-32.029
-27.101
-22.105
-17.113
-12.176
-7.317
-2.558
2.089
6.615
11.009
15.279
19.447
23.531
27.547
31.5
35.39
39.222
43.008
46.764
50.512
54.266
58.031
61.815
65.621
69.452
73.309
77.186
81.07
84.951
88.823
92.679
96.513
100.319
104.085
107.799
111.451
115.027
118.515
121.904
125.177
128.324
131.33
134.184
136.875
139.392
141.722
143.855
145.777
147.478
148.946
150.172
151.147
151.861
152.307
152.48
152.375
151.987
151.315
150.356
149.11
147.579
145.764
143.669
141.3
138.662
135.763
132.613
129.221
125.6
121.761
117.718
113.487
109.083
104.522
99.821
94.997
90.069
85.053
79.969
74.834
69.667
64.485
59.307
54.15
49.031
43.965
38.969
34.057
29.243
24.541
19.963
15.521
11.224
7.083
3.106
-0.7
-4.328
-7.773
-11.031
-14.1
-16.978
-19.664
-22.16
-24.466
-26.587
-28.524
-30.283
-31.869
-33.289
-34.548
-35.655
-36.617
-37.443
-38.141
-38.721
-39.193
-39.565
-39.847
-40.048
-40.178
-40.247
-40.262
-40.232
-40.167
-40.075
-39.962
-39.836
-39.704
-39.571
-39.445
-39.328
-39.227
-39.143
-39.08
-39.041
-39.027
-39.039
-39.078
-39.144
-39.237
-39.355
-39.497
-39.661
-39.845
-40.044
-40.258
-40.481
-40.711
-40.943
-41.173
-41.398
-41.613
-41.814
-41.998
-42.16
-42.296
-42.403
-42.479
-42.519
-42.522
-42.485
-42.406
-42.285
-42.12
-41.91
-41.656
-41.358
-41.017
-40.632
-40.207
-39.742
-39.24
-38.701
-38.129
-37.527
-36.896
-36.24
-35.561
-34.863
-34.15
-33.424
-32.689
-31.949
-31.207
-30.466
-29.729
-29
-28.281
-27.574
-26.882
-26.205
-25.546
-24.905
-24.283
-23.68
-23.095
-22.529
-21.978
-21.443
-20.92
-20.408
-19.904
-19.405
-18.91
-18.415
-17.919
-17.418
-16.911
-16.395
-15.869
-15.331
-14.78
-14.214
-13.632
-13.034
-12.42
-11.789
-11.144
-10.485
-9.815
-9.138
-8.46
-7.785
-7.122
-6.477
-5.858
-5.275
-4.733
-4.241
-3.807
-3.436
-3.138
-2.921
-2.794
-2.767
-2.849
-3.048
-3.373
-3.828
-4.413
-5.13
-5.976
-6.952
-8.066
-9.326
-10.735
-12.302
-14.034
-15.932
-17.99
-20.19
-22.497
-24.873
-27.282
-29.683
-32.048
-34.344
-36.532
-38.575
-40.421
-42.017
-43.324
-44.291
-44.869
-45.033
-44.784
-44.181
-43.329
-42.343
-41.322
-40.349
-39.521
-38.964
-38.803
-39.158
-40.157
-41.864
-44.417
-48.073
-52.868
-58.69
-65.277
-71.982
-78.203
-83.577
-87.415
-88.892
-87.94
-84.677
-79.553
-74.212
-69.865
-67.065
-67.437
-71.464
-76.741
-81.345
-83.027
-80.212
-76.462
-73.714
-67.807
-50.54
-9.613
64.109
169.437
297.666
436.439
574.891
706.484
823.663
917.031
972.57
972.997
910.444
786.108
612.147
413.089
213.887
36.753
-101.564
-193.538
-241.092
-251.397
-232.57
-196.589
-152.419
-108.488
-77.385
-63.79
-68.068
-85.717
-104.34
-117.339
-122.867
-122.172
-121.058
-121.364
-122.107
-122.268
-119.677
-114.021
-106.527
-98.039
-89.629
-82.223
-76.026
-71.105
-67.406
-64.619
-62.528
-61.011
-59.909
-59.044
-58.284
-57.533
-56.745
-55.964
-55.204
-54.427
-53.584
-52.635
-51.576
-50.445
-49.292
-48.157
-47.076
-46.085
-45.219
-44.514
-43.994
-43.653
-43.456
-43.336
-43.221
-43.067
-42.849
-42.545
-42.13
-41.569
-40.827
-39.884
-38.726
-37.339
-35.708
-33.818
-31.661
-29.252
-26.623
-23.828
-20.926
-17.961
-14.958
-11.939
-8.915
-5.9
-2.901
0.086
3.072
6.061
9.055
12.05
15.042
18.035
21.039
24.069
27.143
30.273
33.46
36.706
40.004
43.345
46.719
50.106
53.483
56.83
60.128
63.362
66.517
69.577
72.523
75.339
78.006
80.507
82.826
84.949
86.861
88.549
90.001
91.21
92.167
92.868
93.305
93.474
93.371
92.992
92.337
91.405
90.198
88.717
86.968
84.956
82.688
80.174
77.423
74.447
71.258
67.867
64.29
60.541
56.634
52.585
48.409
44.122
39.74
35.28
30.757
26.188
21.588
16.974
12.359
7.76
3.19
-1.337
-5.807
-10.21
-14.532
-18.762
-22.892
-26.911
-30.81
-34.582
-38.221
-41.721
-45.076
-48.283
-51.339
-54.241
-56.989
-59.581
-62.018
-64.3
-66.428
-68.405
-70.232
-71.914
-73.452
-74.851
-76.115
-77.248
-78.255
-79.14
-79.908
-80.565
-81.114
-81.563
-81.914
-82.174
-82.348
-82.44
-82.456
-82.399
-82.275
-82.088
-81.842
-81.541
-81.189
-80.788
-80.344
-79.858
-79.334
-78.774
-78.182
-77.56
-76.91
-76.235
-75.536
-74.817
-74.079
-73.325
-72.556
-71.775
-70.984
-70.185
-69.38
-68.572
-67.764
-66.957
-66.154
-65.357
-64.57
-63.794
-63.032
-62.287
-61.562
-60.86
-60.183
-59.534
-58.916
-58.332
-57.785
-57.277
-56.812
-56.391
-56.017
-55.692
-55.418
-55.197
-55.03
-54.919
-54.863
-54.865
-54.922
-55.036
-55.204
-55.426
-55.7
-56.024
-56.394
-56.808
-57.263
-57.755
-58.279
-58.831
-59.406
-59.999
-60.604
-61.215
-61.826
-62.43
-63.02
-63.591
-64.134
-64.644
-65.112
-65.533
-65.899
-66.204
-66.44
-66.602
-66.684
-66.679
-66.585
-66.395
-66.108
-65.718
-65.226
-64.629
-63.928
-63.123
-62.216
-61.208
-60.103
-58.905
-57.62
-56.253
-54.811
-53.304
-51.741
-50.134
-48.494
-46.836
-45.173
-43.52
-41.891
-40.299
-38.758
-37.279
-35.875
-34.558
-33.344
-32.244
-31.273
-30.442
-29.762
-29.241
-28.888
-28.703
-28.686
-28.836
-29.153
-29.645
-30.319
-31.182
-32.241
-33.499
-34.955
-36.597
-38.408
-40.358
-42.412
-44.536
-46.696
-48.864
-51.014
-53.117
-55.135
-57.017
-58.713
-60.166
-61.33
-62.153
-62.606
-62.702
-62.479
-62.013
-61.382
-60.637
-59.841
-59.087
-58.47
-58.087
-58.045
-58.399
-59.269
-60.908
-63.436
-66.801
-70.795
-74.881
-78.502
-81.313
-82.809
-82.268
-79.392
-74.378
-67.883
-61.395
-56.486
-54.133
-55.397
-61.681
-72.466
-85.162
-97.244
-104.753
-106.385
-105.014
-99.345
-85.137
-54.838
2.52
89.811
201.868
329.096
459.067
584.994
702.761
805.389
883.878
922.555
906.082
829.506
694.644
515.017
314.783
116.783
-55.37
-181.503
-254.419
-274.502
-248.747
-193.874
-127.431
-65.767
-25.742
-13.067
-23.586
-47.774
-70.103
-82.544
-85.132
-81.329
-78.414
-78.66
-80.438
-82.135
-81.169
-77.179
-71.515
-65.052
-58.838
-53.813
-50.17
-47.951
-47.125
-47.344
-48.362
-50.066
-52.276
-54.8
-57.492
-60.2
-62.788
-65.184
-67.285
-68.963
-70.13
-70.725
-70.727
-70.158
-69.052
-67.447
-65.393
-62.948
-60.168
-57.106
-53.815
-50.349
-46.766
-43.128
-39.497
-35.929
-32.468
-29.143
-25.969
-22.948
-20.075
-17.34
-14.725
-12.212
-9.785
-7.43
-5.134
-2.885
-0.669
1.529
3.725
5.934
8.17
10.445
12.768
15.148
17.591
20.103
22.686
25.345
28.081
30.899
33.802
36.792
39.87
43.036
46.29
49.629
53.049
56.544
60.106
63.728
67.397
71.104
74.834
78.575
82.311
86.026
89.703
93.327
96.878
100.34
103.694
106.922
110.007
112.932
115.679
118.232
120.576
122.696
124.579
126.212
127.584
128.684
129.505
130.039
130.281
130.226
129.872
129.219
128.268
127.021
125.484
123.663
121.565
119.202
116.585
113.725
110.639
107.34
103.846
100.173
96.339
92.364
88.266
84.065
79.779
75.428
71.032
66.61
62.18
57.761
53.371
49.027
44.746
40.543
36.433
32.429
28.544
24.789
21.175
17.711
14.403
11.259
8.282
5.477
2.846
0.389
-1.894
-4.005
-5.946
-7.723
-9.339
-10.802
-12.116
-13.291
-14.333
-15.25
-16.051
-16.744
-17.339
-17.844
-18.269
-18.623
-18.915
-19.153
-19.347
-19.505
-19.635
-19.745
-19.842
-19.931
-20.02
-20.113
-20.215
-20.33
-20.462
-20.613
-20.786
-20.981
-21.2
-21.442
-21.707
-21.993
-22.299
-22.622
-22.96
-23.311
-23.671
-24.038
-24.41
-24.783
-25.154
-25.521
-25.88
-26.229
-26.566
-26.886
-27.187
-27.467
-27.724
-27.956
-28.16
-28.337
-28.484
-28.603
-28.691
-28.75
-28.778
-28.777
-28.746
-28.688
-28.601
-28.489
-28.352
-28.194
-28.017
-27.822
-27.614
-27.395
-27.166
-26.931
-26.692
-26.449
-26.207
-25.965
-25.727
-25.495
-25.27
-25.054
-24.851
-24.66
-24.483
-24.321
-24.175
-24.043
-23.926
-23.821
-23.727
-23.644
-23.57
-23.504
-23.446
-23.396
-23.352
-23.315
-23.285
-23.259
-23.236
-23.212
-23.182
-23.144
-23.092
-23.021
-22.929
-22.813
-22.669
-22.496
-22.294
-22.062
-21.797
-21.495
-21.148
-20.753
-20.31
-19.821
-19.294
-18.739
-18.175
-17.619
-17.092
-16.609
-16.181
-15.812
-15.496
-15.228
-14.998
-14.805
-14.657
-14.56
-14.515
-14.524
-14.583
-14.678
-14.791
-14.895
-14.956
-14.949
-14.862
-14.704
-14.502
-14.295
-14.137
-14.066
-14.107
-14.286
-14.62
-15.125
-15.807
-16.667
-17.709
-18.947
-20.406
-22.103
-24.036
-26.174
-28.456
-30.807
-33.125
-35.326
-37.341
-39.1
-40.559
-41.69
-42.506
-43.069
-43.456
-43.733
-43.947
-44.128
-44.339
-44.685
-45.278
-46.233
-47.684
-49.7
-52.411
-56.038
-60.59
-65.941
-71.839
-77.721
-83.075
-87.598
-90.71
-91.661
-90.304
-86.678
-81.089
-74.785
-68.681
-63.178
-59.571
-58.503
-58.329
-57.323
-53.394
-45.123
-35.168
-26.329
-17.562
-3.159
26.229
80.24
163.918
274.043
403.491
542.075
676.889
796.8
889.715
943.756
949.662
900.704
797.632
648.229
467.698
279.11
104.3
-38.025
-134.451
-184.647
-194.803
-175.211
-141.711
-105.67
-76.133
-59.957
-56.154
-61.47
-69.633
-74.074
-73.673
-70.169
-67.581
-68.881
-73.345
-78.517
-81.73
-81.871
-79.44
-75.432
-70.803
-66.112
-61.819
-58.514
-56.539
-55.926
-56.522
-58.017
-60.144
-62.717
-65.509
-68.279
-70.848
-73.084
-74.917
-76.301
-77.155
-77.411
-77.034
-76.023
-74.411
-72.251
-69.612
-66.577
-63.253
-59.767
-56.227
-52.708
-49.263
-45.919
-42.684
-39.583
-36.645
-33.886
-31.315
-28.931
-26.719
-24.67
-22.763
-20.961
-19.217
-17.466
-15.653
-13.753
-11.756
-9.673
-7.531
-5.341
-3.111
-0.853
1.427
3.73
6.052
8.404
10.797
13.23
15.696
18.18
20.665
23.151
25.642
28.15
30.694
33.288
35.94
38.665
41.467
44.347
47.302
50.319
53.384
56.484
59.607
62.744
65.886
69.019
72.129
75.198
78.209
81.142
83.979
86.697
89.278
91.703
93.955
96.02
97.884
99.535
100.961
102.15
103.092
103.777
104.197
104.344
104.211
103.794
103.09
102.098
100.818
99.252
97.405
95.283
92.891
90.239
87.336
84.193
80.823
77.239
73.456
69.489
65.355
61.071
56.654
52.124
47.5
42.799
38.041
33.245
28.43
23.612
18.81
14.042
9.322
4.666
0.091
-4.391
-8.765
-13.021
-17.145
-21.128
-24.961
-28.635
-32.144
-35.481
-38.643
-41.625
-44.425
-47.04
-49.472
-51.719
-53.783
-55.667
-57.374
-58.906
-60.27
-61.47
-62.513
-63.404
-64.15
-64.759
-65.238
-65.594
-65.835
-65.968
-66
-65.939
-65.791
-65.562
-65.261
-64.891
-64.461
-63.974
-63.437
-62.855
-62.233
-61.574
-60.884
-60.166
-59.424
-58.662
-57.883
-57.089
-56.283
-55.469
-54.647
-53.821
-52.992
-52.162
-51.332
-50.504
-49.678
-48.857
-48.041
-47.231
-46.429
-45.636
-44.854
-44.085
-43.331
-42.595
-41.88
-41.187
-40.522
-39.885
-39.281
-38.713
-38.182
-37.693
-37.247
-36.847
-36.495
-36.193
-35.943
-35.748
-35.608
-35.526
-35.502
-35.537
-35.632
-35.787
-36.002
-36.278
-36.613
-37.007
-37.459
-37.969
-38.534
-39.152
-39.82
-40.535
-41.292
-42.086
-42.913
-43.763
-44.631
-45.509
-46.39
-47.267
-48.132
-48.98
-49.805
-50.6
-51.362
-52.083
-52.758
-53.379
-53.938
-54.427
-54.84
-55.168
-55.404
-55.54
-55.57
-55.494
-55.307
-55.006
-54.584
-54.034
-53.351
-52.536
-51.592
-50.522
-49.335
-48.039
-46.654
-45.208
-43.728
-42.233
-40.737
-39.242
-37.756
-36.285
-34.839
-33.427
-32.045
-30.687
-29.351
-28.038
-26.747
-25.47
-24.18
-22.832
-21.392
-19.847
-18.202
-16.479
-14.696
-12.877
-11.05
-9.26
-7.57
-6.041
-4.721
-3.641
-2.836
-2.351
-2.254
-2.624
-3.513
-4.933
-6.867
-9.28
-12.134
-15.379
-18.949
-22.746
-26.647
-30.543
-34.342
-37.967
-41.351
-44.406
-47.037
-49.156
-50.729
-51.792
-52.418
-52.695
-52.7
-52.508
-52.223
-52.003
-52.01
-52.383
-53.247
-54.677
-56.807
-59.877
-63.944
-68.909
-74.506
-80.146
-85.264
-89.451
-92.019
-92.137
-89.633
-84.615
-77.562
-69.977
-63.006
-57.355
-54.694
-55.578
-58.187
-60.947
-61.393
-58.622
-56.068
-53.835
-47.911
-28.687
17.585
95.605
201.986
324.879
448.198
566.091
676.771
779.091
870.687
938.523
964.973
936.704
847.63
701.998
516.497
314.179
118.158
-48.577
-170.627
-243.297
-268.703
-255.139
-214.848
-160.189
-103.1
-57.328
-32.637
-30.747
-47.666
-71.592
-90.243
-99.174
-98.624
-93.389
-89.328
-87.376
-86.41
-84.938
-81.207
-75.445
-68.833
-62.114
-56.071
-51.248
-47.668
-45.263
-43.902
-43.302
-43.271
-43.731
-44.569
-45.659
-46.906
-48.212
-49.518
-50.793
-51.983
-53.04
-53.936
-54.657
-55.216
-55.642
-55.962
-56.195
-56.353
-56.426
-56.39
-56.228
-55.927
-55.479
-54.875
-54.111
-53.192
-52.119
-50.891
-49.508
-47.959
-46.232
-44.318
-42.215
-39.928
-37.48
-34.909
-32.243
-29.505
-26.716
-23.891
-21.041
-18.175
-15.291
-12.379
-9.432
-6.446
-3.416
-0.337
2.798
6
9.287
12.678
16.188
19.828
23.603
27.516
31.568
35.755
40.067
44.488
49.001
53.591
58.243
62.94
67.665
72.395
77.111
81.79
86.41
90.949
95.385
99.697
103.864
107.864
111.679
115.29
118.679
121.828
124.718
127.333
129.656
131.673
133.37
134.736
135.758
136.429
136.742
136.692
136.275
135.491
134.339
132.823
130.947
128.716
126.139
123.225
119.984
116.43
112.575
108.436
104.027
99.368
94.475
89.369
84.07
78.598
72.976
67.224
61.366
55.423
49.418
43.373
37.31
31.252
25.218
19.231
13.31
7.474
1.743
-3.868
-9.341
-14.661
-19.815
-24.789
-29.571
-34.153
-38.523
-42.675
-46.601
-50.296
-53.756
-56.979
-59.962
-62.704
-65.208
-67.474
-69.505
-71.306
-72.881
-74.236
-75.378
-76.314
-77.052
-77.599
-77.967
-78.162
-78.197
-78.08
-77.823
-77.435
-76.928
-76.311
-75.595
-74.79
-73.906
-72.952
-71.938
-70.874
-69.767
-68.626
-67.459
-66.274
-65.078
-63.878
-62.679
-61.487
-60.308
-59.146
-58.005
-56.888
-55.799
-54.74
-53.714
-52.724
-51.77
-50.854
-49.978
-49.141
-48.344
-47.588
-46.872
-46.195
-45.558
-44.96
-44.401
-43.882
-43.402
-42.961
-42.56
-42.198
-41.877
-41.596
-41.354
-41.152
-40.99
-40.868
-40.786
-40.744
-40.742
-40.783
-40.865
-40.991
-41.159
-41.372
-41.627
-41.927
-42.27
-42.656
-43.085
-43.557
-44.072
-44.628
-45.226
-45.864
-46.541
-47.255
-48.002
-48.78
-49.583
-50.407
-51.246
-52.093
-52.944
-53.793
-54.635
-55.464
-56.274
-57.061
-57.821
-58.547
-59.233
-59.871
-60.452
-60.968
-61.41
-61.77
-62.039
-62.21
-62.276
-62.232
-62.077
-61.805
-61.412
-60.891
-60.235
-59.438
-58.502
-57.428
-56.221
-54.893
-53.457
-51.939
-50.365
-48.757
-47.129
-45.493
-43.85
-42.207
-40.567
-38.932
-37.313
-35.718
-34.151
-32.623
-31.141
-29.7
-28.291
-26.887
-25.455
-23.982
-22.466
-20.913
-19.348
-17.803
-16.314
-14.939
-13.724
-12.705
-11.922
-11.399
-11.159
-11.237
-11.665
-12.471
-13.694
-15.347
-17.421
-19.905
-22.757
-25.916
-29.307
-32.825
-36.363
-39.834
-43.154
-46.245
-49.051
-51.512
-53.598
-55.333
-56.743
-57.874
-58.781
-59.488
-60.054
-60.6
-61.264
-62.209
-63.61
-65.551
-68.168
-71.741
-76.331
-81.793
-87.772
-93.522
-98.384
-102.045
-103.946
-103.342
-100.137
-94.617
-87.741
-81.461
-77.015
-74.917
-76.215
-81.799
-91.354
-102.91
-112.289
-114.433
-106.325
-88.589
-62.732
-27.351
20.463
85.952
173.864
281.453
403.197
532.483
660.153
778.385
877.688
944.93
966.733
933.968
845.597
708.775
538.753
354.316
173.087
12.159
-114.601
-199.296
-240.383
-242.209
-214.434
-169.889
-120.551
-79.303
-56.339
-53.616
-67.847
-89.113
-106.011
-114.292
-114.137
-109.777
-106.595
-105.31
-104.775
-103.54
-99.849
-93.903
-86.8
-79.235
-72.092
-66.056
-61.245
-57.659
-55.169
-53.458
-52.325
-51.668
-51.348
-51.224
-51.197
-51.199
-51.22
-51.274
-51.327
-51.316
-51.191
-50.937
-50.58
-50.173
-49.762
-49.386
-49.075
-48.862
-48.78
-48.826
-48.982
-49.189
-49.362
-49.446
-49.416
-49.253
-48.948
-48.48
-47.813
-46.918
-45.784
-44.394
-42.739
-40.805
-38.576
-36.064
-33.3
-30.335
-27.24
-24.063
-20.831
-17.569
-14.287
-10.997
-7.712
-4.43
-1.138
2.17
5.498
8.847
12.211
15.596
19.016
22.489
26.037
29.673
33.403
37.229
41.148
45.152
49.231
53.367
57.537
61.72
65.897
70.049
74.16
78.213
82.185
86.057
89.807
93.416
96.864
100.132
103.203
106.059
108.686
111.069
113.198
115.062
116.65
117.952
118.96
119.666
120.064
120.149
119.917
119.368
118.5
117.316
115.819
114.015
111.91
109.514
106.835
103.886
100.679
97.226
93.542
89.641
85.541
81.256
76.804
72.202
67.469
62.621
57.679
52.659
47.579
42.458
37.313
32.161
27.019
21.902
16.826
11.807
6.858
1.994
-2.773
-7.431
-11.968
-16.375
-20.642
-24.762
-28.727
-32.533
-36.173
-39.643
-42.941
-46.064
-49.01
-51.779
-54.37
-56.784
-59.023
-61.088
-62.982
-64.708
-66.27
-67.672
-68.918
-70.012
-70.958
-71.763
-72.43
-72.965
-73.374
-73.661
-73.833
-73.895
-73.852
-73.711
-73.476
-73.153
-72.747
-72.263
-71.705
-71.078
-70.386
-69.634
-68.826
-67.967
-67.058
-66.106
-65.112
-64.081
-63.015
-61.918
-60.793
-59.643
-58.47
-57.278
-56.069
-54.847
-53.615
-52.376
-51.132
-49.888
-48.646
-47.408
-46.179
-44.961
-43.757
-42.57
-41.403
-40.259
-39.142
-38.054
-36.999
-35.981
-35.001
-34.065
-33.174
-32.331
-31.54
-30.804
-30.125
-29.506
-28.949
-28.458
-28.033
-27.678
-27.394
-27.183
-27.044
-26.979
-26.987
-27.069
-27.223
-27.449
-27.745
-28.109
-28.538
-29.03
-29.582
-30.19
-30.849
-31.556
-32.306
-33.092
-33.909
-34.75
-35.609
-36.478
-37.352
-38.221
-39.078
-39.914
-40.723
-41.495
-42.221
-42.893
-43.502
-44.04
-44.497
-44.867
-45.141
-45.312
-45.373
-45.319
-45.143
-44.843
-44.413
-43.852
-43.156
-42.324
-41.358
-40.257
-39.025
-37.663
-36.178
-34.575
-32.863
-31.05
-29.149
-27.17
-25.127
-23.034
-20.906
-18.757
-16.601
-14.453
-12.329
-10.244
-8.214
-6.258
-4.393
-2.638
-1.008
0.48
1.813
2.982
3.977
4.792
5.419
5.847
6.063
6.057
5.817
5.334
4.604
3.628
2.424
1.017
-0.565
-2.291
-4.13
-6.058
-8.044
-10.057
-12.063
-14.017
-15.87
-17.577
-19.085
-20.346
-21.325
-22.01
-22.437
-22.676
-22.803
-22.894
-22.998
-23.174
-23.526
-24.17
-25.228
-26.818
-29
-31.872
-35.662
-40.473
-46.218
-52.595
-58.975
-64.747
-69.581
-73.077
-74.624
-73.922
-71.081
-66.813
-62.665
-59.934
-59.259
-61.227
-66.52
-75.5
-86.723
-96.574
-100.702
-94.883
-78.956
-56.789
-28.821
6.216
53.314
123.081
218.247
336.121
470.539
607.552
736.683
848.315
930.995
974.446
966.339
900.027
776.955
608.372
416.397
223.782
52.374
-80.964
-169.32
-211.75
-215.521
-194.701
-164.062
-136.964
-120.527
-113.69
-110.961
-105.474
-92.882
-73.693
-52.104
-33.739
-22.558
-20.051
-24.672
-32.828
-41.99
-50.431
-57.288
-62.832
-66.616
-67.583
-65.617
-61.148
-54.977
-48.579
-42.803
-37.809
-33.972
-31.629
-30.831
-31.566
-33.475
-35.818
-38.199
-40.481
-42.526
-44.348
-45.919
-47.149
-48.093
-48.859
-49.478
-49.942
-50.177
-50.094
-49.699
-49.02
-48.089
-46.939
-45.562
-43.961
-42.166
-40.189
-38.036
-35.712
-33.2
-30.509
-27.68
-24.755
-21.797
-18.848
-15.912
-12.997
-10.108
-7.244
-4.419
-1.634
1.128
3.87
6.587
9.277
11.93
14.55
17.163
19.796
22.477
25.225
28.046
30.943
33.914
36.949
40.036
43.155
46.285
49.414
52.538
55.665
58.801
61.953
65.112
68.266
71.401
74.506
77.574
80.602
83.595
86.565
89.536
92.532
95.571
98.653
101.761
104.857
107.895
110.815
113.573
116.134
118.466
120.544
122.338
123.821
124.956
125.7
126.001
125.797
125.043
123.709
121.795
119.326
116.348
112.923
109.108
104.95
100.491
95.765
90.804
85.642
80.316
74.865
69.343
63.814
58.336
52.956
47.699
42.575
37.573
32.67
27.846
23.088
18.387
13.744
9.165
4.657
0.231
-4.102
-8.341
-12.491
-16.558
-20.548
-24.457
-28.274
-31.982
-35.558
-38.981
-42.233
-45.3
-48.174
-50.852
-53.334
-55.625
-57.733
-59.666
-61.427
-63.019
-64.445
-65.71
-66.82
-67.784
-68.61
-69.31
-69.892
-70.367
-70.744
-71.031
-71.235
-71.362
-71.416
-71.402
-71.326
-71.192
-71.006
-70.775
-70.503
-70.196
-69.861
-69.5
-69.119
-68.721
-68.308
-67.882
-67.446
-66.999
-66.544
-66.079
-65.606
-65.125
-64.635
-64.136
-63.628
-63.111
-62.584
-62.048
-61.501
-60.945
-60.38
-59.805
-59.222
-58.63
-58.03
-57.425
-56.814
-56.198
-55.58
-54.958
-54.336
-53.714
-53.093
-52.474
-51.859
-51.25
-50.648
-50.056
-49.476
-48.911
-48.363
-47.835
-47.331
-46.853
-46.405
-45.989
-45.608
-45.265
-44.962
-44.701
-44.484
-44.311
-44.183
-44.102
-44.066
-44.074
-44.124
-44.215
-44.345
-44.51
-44.71
-44.94
-45.198
-45.482
-45.789
-46.117
-46.462
-46.82
-47.185
-47.553
-47.919
-48.276
-48.617
-48.935
-49.221
-49.467
-49.668
-49.816
-49.9
-49.909
-49.829
-49.652
-49.374
-48.991
-48.504
-47.915
-47.228
-46.456
-45.617
-44.724
-43.789
-42.816
-41.809
-40.776
-39.731
-38.684
-37.65
-36.631
-35.625
-34.623
-33.619
-32.593
-31.513
-30.344
-29.035
-27.557
-25.897
-24.049
-22.021
-19.817
-17.441
-14.908
-12.242
-9.473
-6.646
-3.808
-1.011
1.665
4.119
6.253
7.957
9.146
9.768
9.779
9.157
7.897
6.004
3.508
0.458
-3.1
-7.105
-11.484
-16.155
-20.997
-25.87
-30.641
-35.176
-39.357
-43.099
-46.323
-48.98
-51.082
-52.68
-53.85
-54.694
-55.284
-55.671
-55.952
-56.242
-56.661
-57.359
-58.451
-59.994
-62.148
-65.146
-69.027
-73.72
-78.918
-83.949
-88.222
-91.313
-92.523
-91.118
-86.947
-80.028
-70.964
-61.508
-53.147
-46.923
-44.633
-46.676
-50.798
-55.186
-57.027
-54.409
-50.96
-48.423
-44.033
-31.32
3.704
73.083
179.666
319.669
479.249
641.338
791.272
912.101
991.64
1019.786
987.911
898.323
757.317
577.522
379.546
183.799
11.397
-121.114
-206.042
-245.831
-249.466
-225.494
-184.826
-135.11
-84.472
-47.273
-30.408
-35.385
-57
-80.315
-96.457
-102.582
-100.125
-96.102
-93.37
-91.318
-88.959
-83.951
-75.98
-66.444
-56.331
-46.758
-38.562
-31.885
-26.804
-23.315
-21.209
-20.322
-20.543
-21.74
-23.759
-26.47
-29.736
-33.4
-37.332
-41.385
-45.394
-49.226
-52.776
-55.945
-58.646
-60.807
-62.362
-63.276
-63.557
-63.212
-62.261
-60.741
-58.697
-56.196
-53.323
-50.156
-46.765
-43.212
-39.549
-35.834
-32.134
-28.499
-24.969
-21.57
-18.307
-15.187
-12.217
-9.39
-6.694
-4.11
-1.609
0.829
3.217
5.575
7.92
10.275
12.668
15.12
17.646
20.255
22.954
25.746
28.639
31.63
34.714
37.883
41.131
44.454
47.846
51.302
54.812
58.366
61.949
65.551
69.158
72.757
76.334
79.874
83.362
86.782
90.122
93.366
96.499
99.503
102.363
105.063
107.587
109.92
112.048
113.957
115.634
117.069
118.251
119.171
119.822
120.196
120.289
120.096
119.615
118.843
117.782
116.433
114.798
112.882
110.69
108.23
105.51
102.54
99.329
95.89
92.236
88.38
84.335
80.117
75.741
71.221
66.574
61.815
56.959
52.022
47.019
41.966
36.876
31.765
26.645
21.53
16.433
11.365
6.339
1.364
-3.549
-8.39
-13.151
-17.823
-22.398
-26.871
-31.234
-35.483
-39.613
-43.62
-47.501
-51.252
-54.873
-58.36
-61.713
-64.931
-68.013
-70.958
-73.766
-76.438
-78.972
-81.37
-83.632
-85.758
-87.748
-89.603
-91.323
-92.909
-94.361
-95.68
-96.867
-97.921
-98.843
-99.636
-100.299
-100.834
-101.242
-101.524
-101.682
-101.718
-101.633
-101.428
-101.107
-100.67
-100.121
-99.462
-98.697
-97.828
-96.859
-95.793
-94.636
-93.39
-92.061
-90.653
-89.171
-87.621
-86.009
-84.341
-82.622
-80.859
-79.06
-77.231
-75.379
-73.511
-71.634
-69.754
-67.88
-66.017
-64.172
-62.352
-60.564
-58.813
-57.107
-55.45
-53.848
-52.307
-50.83
-49.423
-48.09
-46.834
-45.659
-44.569
-43.565
-42.651
-41.829
-41.1
-40.466
-39.928
-39.485
-39.137
-38.883
-38.721
-38.649
-38.664
-38.762
-38.941
-39.195
-39.52
-39.911
-40.361
-40.864
-41.414
-42.003
-42.625
-43.271
-43.933
-44.604
-45.275
-45.94
-46.588
-47.213
-47.806
-48.357
-48.859
-49.302
-49.678
-49.977
-50.19
-50.309
-50.327
-50.237
-50.03
-49.701
-49.246
-48.659
-47.936
-47.075
-46.074
-44.932
-43.65
-42.23
-40.675
-38.989
-37.179
-35.252
-33.218
-31.086
-28.868
-26.574
-24.218
-21.815
-19.379
-16.927
-14.473
-12.035
-9.63
-7.276
-4.993
-2.797
-0.707
1.26
3.085
4.749
6.232
7.519
8.598
9.459
10.091
10.485
10.628
10.513
10.138
9.5
8.6
7.435
6.009
4.335
2.44
0.362
-1.86
-4.191
-6.602
-9.059
-11.527
-13.961
-16.318
-18.561
-20.656
-22.571
-24.272
-25.718
-26.886
-27.779
-28.45
-28.993
-29.503
-30.075
-30.776
-31.65
-32.768
-34.227
-36.102
-38.468
-41.379
-44.819
-48.896
-53.818
-59.565
-65.989
-72.704
-78.928
-84.008
-87.534
-88.798
-87.077
-82.322
-74.609
-64.659
-54.426
-45.453
-38.809
-36.285
-38.163
-42.074
-46.183
-47.667
-44.329
-39.163
-33.288
-22.882
-1.542
42.176
118.31
226.367
360.476
511.211
664.513
810.059
935.387
1022.56
1056.437
1023.251
918.673
753.515
547.204
327.299
122.273
-47.413
-168.485
-237.934
-262.688
-251.135
-213.904
-163.02
-107.636
-59.842
-30.575
-22.67
-34.502
-56.85
-77.114
-89.709
-93.327
-90.968
-88.56
-87.601
-87.302
-86.576
-83.427
-77.788
-70.904
-63.628
-56.909
-51.418
-47.166
-44.043
-41.92
-40.508
-39.587
-39.049
-38.751
-38.547
-38.378
-38.207
-38.002
-37.791
-37.553
-37.225
-36.791
-36.246
-35.61
-34.94
-34.281
-33.656
-33.1
-32.643
-32.3
-32.077
-31.95
-31.859
-31.757
-31.599
-31.354
-31.018
-30.572
-29.99
-29.248
-28.322
-27.193
-25.858
-24.307
-22.524
-20.514
-18.289
-15.883
-13.353
-10.744
-8.092
-5.424
-2.752
-0.086
2.561
5.188
7.804
10.415
13.034
15.666
18.312
20.98
23.68
26.431
29.257
32.177
35.199
38.328
41.566
44.909
48.352
51.883
55.483
59.131
62.811
66.505
70.197
73.868
77.5
81.069
84.556
87.938
91.197
94.313
97.267
100.04
102.617
104.98
107.117
109.015
110.66
112.041
113.144
113.962
114.484
114.705
114.617
114.217
113.502
112.471
111.126
109.468
107.503
105.235
102.673
99.825
96.702
93.316
89.68
85.809
81.716
77.419
72.935
68.28
63.473
58.531
53.474
48.321
43.089
37.799
32.469
27.116
21.76
16.417
11.104
5.837
0.632
-4.497
-9.536
-14.472
-19.292
-23.984
-28.539
-32.947
-37.198
-41.285
-45.201
-48.941
-52.499
-55.873
-59.059
-62.055
-64.86
-67.475
-69.899
-72.135
-74.183
-76.047
-77.731
-79.237
-80.571
-81.736
-82.739
-83.583
-84.275
-84.82
-85.223
-85.49
-85.626
-85.637
-85.529
-85.307
-84.977
-84.546
-84.019
-83.402
-82.7
-81.921
-81.068
-80.149
-79.168
-78.131
-77.043
-75.911
-74.737
-73.529
-72.289
-71.023
-69.735
-68.428
-67.107
-65.775
-64.434
-63.089
-61.743
-60.398
-59.058
-57.725
-56.403
-55.094
-53.801
-52.528
-51.276
-50.048
-48.847
-47.675
-46.535
-45.429
-44.36
-43.329
-42.339
-41.39
-40.485
-39.626
-38.812
-38.045
-37.326
-36.655
-36.033
-35.46
-34.938
-34.466
-34.046
-33.678
-33.362
-33.1
-32.891
-32.737
-32.637
-32.59
-32.598
-32.66
-32.775
-32.943
-33.162
-33.432
-33.749
-34.113
-34.52
-34.965
-35.445
-35.955
-36.49
-37.047
-37.621
-38.206
-38.799
-39.398
-39.997
-40.593
-41.181
-41.754
-42.308
-42.836
-43.332
-43.787
-44.194
-44.544
-44.829
-45.044
-45.181
-45.231
-45.185
-45.031
-44.76
-44.37
-43.858
-43.224
-42.474
-41.612
-40.653
-39.616
-38.516
-37.371
-36.191
-34.986
-33.77
-32.556
-31.354
-30.178
-29.034
-27.917
-26.821
-25.736
-24.636
-23.499
-22.292
-20.97
-19.506
-17.881
-16.081
-14.108
-11.963
-9.653
-7.202
-4.633
-1.98
0.706
3.367
5.936
8.315
10.415
12.145
13.398
14.099
14.186
13.608
12.349
10.415
7.823
4.62
0.858
-3.407
-8.093
-13.106
-18.333
-23.625
-28.842
-33.853
-38.517
-42.721
-46.369
-49.381
-51.739
-53.497
-54.725
-55.521
-55.976
-56.138
-56.101
-55.996
-55.953
-56.133
-56.694
-57.714
-59.347
-61.847
-65.248
-69.451
-74.19
-78.788
-82.617
-85.291
-86.149
-84.426
-80.07
-73.25
-64.497
-55.51
-47.64
-41.597
-38.97
-40.461
-44.271
-48.58
-50.867
-48.726
-43.42
-36.073
-24.482
-2.828
36.787
101.541
194.928
313.198
450.223
599.135
748.336
884.401
992.18
1052.316
1049.156
977.859
841.348
654.567
443.351
232.848
47.378
-93.675
-182.831
-221.573
-218.113
-186.192
-140.474
-92.6
-53.485
-30.977
-26.166
-36.68
-54.578
-70.2
-79.793
-82.788
-82.29
-82.934
-85.065
-87.519
-88.938
-87.465
-83.22
-77.33
-70.521
-63.814
-58.075
-53.503
-50.18
-48.048
-46.799
-46.237
-46.264
-46.727
-47.464
-48.362
-49.319
-50.267
-51.198
-52.085
-52.866
-53.487
-53.908
-54.127
-54.165
-54.052
-53.815
-53.478
-53.058
-52.57
-52.009
-51.356
-50.599
-49.727
-48.73
-47.595
-46.316
-44.889
-43.312
-41.579
-39.68
-37.602
-35.333
-32.866
-30.205
-27.359
-24.352
-21.221
-17.999
-14.709
-11.374
-8.014
-4.644
-1.276
2.086
5.448
8.81
12.173
15.539
18.907
22.284
25.677
29.098
32.564
36.086
39.67
43.319
47.033
50.808
54.638
58.511
62.409
66.314
70.21
74.08
77.906
81.671
85.353
88.931
92.386
95.695
98.841
101.803
104.563
107.104
109.411
111.467
113.261
114.78
116.012
116.946
117.571
117.879
117.864
117.519
116.841
115.827
114.477
112.793
110.778
108.438
105.78
102.812
99.546
95.992
92.165
88.08
83.754
79.203
74.447
69.506
64.399
59.147
53.774
48.299
42.746
37.137
31.495
25.841
20.198
14.588
9.033
3.552
-1.834
-7.105
-12.245
-17.236
-22.062
-26.708
-31.163
-35.414
-39.45
-43.264
-46.848
-50.195
-53.302
-56.165
-58.784
-61.157
-63.287
-65.176
-66.827
-68.247
-69.442
-70.418
-71.185
-71.751
-72.127
-72.324
-72.352
-72.225
-71.956
-71.557
-71.042
-70.424
-69.718
-68.938
-68.095
-67.205
-66.279
-65.329
-64.367
-63.405
-62.452
-61.518
-60.613
-59.744
-58.919
-58.145
-57.427
-56.771
-56.18
-55.659
-55.209
-54.833
-54.531
-54.304
-54.151
-54.072
-54.064
-54.124
-54.251
-54.441
-54.689
-54.991
-55.343
-55.738
-56.172
-56.638
-57.132
-57.647
-58.178
-58.721
-59.27
-59.821
-60.369
-60.911
-61.443
-61.963
-62.466
-62.952
-63.416
-63.858
-64.275
-64.667
-65.032
-65.37
-65.681
-65.964
-66.221
-66.453
-66.659
-66.842
-67.002
-67.142
-67.263
-67.367
-67.455
-67.531
-67.595
-67.651
-67.7
-67.743
-67.782
-67.817
-67.849
-67.877
-67.899
-67.914
-67.919
-67.911
-67.888
-67.848
-67.788
-67.705
-67.597
-67.463
-67.301
-67.107
-66.878
-66.609
-66.293
-65.925
-65.5
-65.01
-64.449
-63.809
-63.086
-62.279
-61.383
-60.396
-59.31
-58.117
-56.814
-55.4
-53.879
-52.254
-50.531
-48.72
-46.839
-44.913
-42.968
-41.022
-39.085
-37.16
-35.253
-33.371
-31.523
-29.717
-27.95
-26.218
-24.516
-22.849
-21.218
-19.612
-18.008
-16.365
-14.649
-12.852
-10.982
-9.059
-7.103
-5.138
-3.194
-1.311
0.448
2.029
3.385
4.484
5.293
5.764
5.834
5.421
4.468
2.957
0.898
-1.68
-4.744
-8.246
-12.123
-16.281
-20.604
-24.985
-29.33
-33.554
-37.573
-41.293
-44.607
-47.406
-49.624
-51.254
-52.328
-52.909
-53.059
-52.831
-52.318
-51.671
-51.057
-50.633
-50.531
-50.836
-51.68
-53.302
-55.843
-59.258
-63.332
-67.616
-71.628
-75.057
-77.491
-78.211
-76.726
-73.118
-67.867
-61.934
-56.53
-52.327
-49.897
-50.767
-55.102
-60.445
-64.338
-63.755
-57.551
-49.854
-42.796
-32.771
-12.275
30.933
106.191
212.363
341.625
481.991
620.826
750.727
865.63
957.522
1016.046
1025.947
974.187
857.036
681.048
467.352
246.46
46.803
-107.299
-202.727
-241.675
-233.043
-193.108
-140.945
-90.915
-55.827
-40.335
-41.53
-53.314
-64.777
-70.443
-70.693
-67.682
-67.14
-70.789
-76.135
-81.19
-83.433
-82.008
-78.09
-72.599
-66.315
-60.139
-54.76
-50.529
-47.605
-45.866
-44.967
-44.699
-44.936
-45.483
-46.14
-46.751
-47.188
-47.409
-47.43
-47.228
-46.773
-46.053
-45.074
-43.877
-42.524
-41.074
-39.584
-38.094
-36.649
-35.285
-34.014
-32.84
-31.75
-30.704
-29.676
-28.643
-27.567
-26.422
-25.178
-23.793
-22.234
-20.474
-18.486
-16.256
-13.775
-11.039
-8.059
-4.859
-1.474
2.045
5.655
9.325
13.019
16.715
20.392
24.031
27.622
31.164
34.652
38.087
41.471
44.801
48.082
51.325
54.541
57.748
60.958
64.175
67.403
70.638
73.873
77.1
80.304
83.465
86.566
89.589
92.516
95.332
98.021
100.564
102.945
105.145
107.147
108.937
110.501
111.826
112.902
113.718
114.267
114.544
114.544
114.263
113.698
112.845
111.703
110.274
108.557
106.557
104.277
101.723
98.903
95.828
92.508
88.955
85.183
81.207
77.043
72.707
68.215
63.586
58.838
53.989
49.058
44.064
39.024
33.959
28.885
23.821
18.783
13.788
8.852
3.99
-0.785
-5.459
-10.02
-14.455
-18.753
-22.907
-26.905
-30.74
-34.406
-37.896
-41.206
-44.332
-47.272
-50.024
-52.587
-54.963
-57.151
-59.154
-60.974
-62.615
-64.08
-65.374
-66.501
-67.468
-68.28
-68.943
-69.463
-69.847
-70.101
-70.232
-70.246
-70.15
-69.948
-69.647
-69.253
-68.772
-68.209
-67.57
-66.859
-66.083
-65.244
-64.35
-63.403
-62.408
-61.371
-60.294
-59.182
-58.039
-56.869
-55.677
-54.466
-53.239
-52.002
-50.758
-49.51
-48.262
-47.017
-45.779
-44.551
-43.336
-42.138
-40.961
-39.807
-38.681
-37.586
-36.527
-35.506
-34.528
-33.596
-32.715
-31.887
-31.117
-30.407
-29.761
-29.182
-28.672
-28.235
-27.871
-27.582
-27.37
-27.235
-27.176
-27.194
-27.287
-27.454
-27.694
-28.003
-28.381
-28.824
-29.33
-29.895
-30.517
-31.19
-31.912
-32.677
-33.481
-34.319
-35.186
-36.076
-36.982
-37.901
-38.825
-39.748
-40.665
-41.568
-42.452
-43.311
-44.137
-44.925
-45.668
-46.362
-47
-47.578
-48.091
-48.537
-48.911
-49.21
-49.432
-49.575
-49.635
-49.612
-49.503
-49.308
-49.025
-48.654
-48.196
-47.649
-47.016
-46.297
-45.495
-44.611
-43.648
-42.609
-41.496
-40.316
-39.071
-37.769
-36.415
-35.016
-33.58
-32.117
-30.635
-29.146
-27.66
-26.188
-24.742
-23.334
-21.975
-20.675
-19.445
-18.295
-17.235
-16.274
-15.422
-14.688
-14.08
-13.611
-13.291
-13.128
-13.129
-13.296
-13.632
-14.137
-14.816
-15.672
-16.71
-17.932
-19.339
-20.936
-22.722
-24.691
-26.825
-29.083
-31.424
-33.806
-36.188
-38.536
-40.815
-42.984
-45.005
-46.835
-48.43
-49.762
-50.794
-51.482
-51.804
-51.753
-51.366
-50.757
-50.041
-49.339
-48.76
-48.374
-48.268
-48.556
-49.326
-50.67
-52.678
-55.364
-58.83
-63.285
-68.739
-75.088
-81.99
-88.686
-94.491
-98.921
-101.26
-100.827
-97.435
-90.995
-82.265
-73.112
-64.991
-59.213
-56.628
-56.494
-57.426
-57.973
-57.651
-57.357
-57.586
-57.229
-49.245
-22.577
31.002
117.164
232.112
364.768
506.278
646.392
776.555
887.78
965.931
996.558
968.239
878.783
735.034
551.838
350.922
153.758
-18.754
-149.28
-229.898
-261.801
-252.846
-215.726
-164.666
-110.935
-65.922
-39.122
-32.295
-42.984
-62.596
-79.876
-90.194
-92.919
-91.085
-89.737
-89.717
-89.994
-89.408
-86.261
-80.695
-73.889
-66.622
-59.826
-54.187
-49.799
-46.648
-44.611
-43.408
-42.85
-42.864
-43.381
-44.329
-45.658
-47.295
-49.153
-51.178
-53.3
-55.435
-57.529
-59.538
-61.429
-63.2
-64.858
-66.402
-67.819
-69.075
-70.096
-70.813
-71.187
-71.199
-70.857
-70.175
-69.164
-67.841
-66.226
-64.34
-62.199
-59.808
-57.164
-54.273
-51.154
-47.844
-44.406
-40.895
-37.347
-33.787
-30.23
-26.684
-23.157
-19.65
-16.149
-12.642
-9.12
-5.577
-2.016
1.566
5.179
8.838
12.567
16.383
20.292
24.299
28.406
32.61
36.905
41.281
45.718
50.199
54.708
59.23
63.751
68.256
72.727
77.146
81.492
85.747
89.893
93.913
97.786
101.496
105.025
108.358
111.479
114.376
117.032
119.432
121.564
123.413
124.968
126.218
127.153
127.765
128.047
127.996
127.609
126.885
125.825
124.431
122.708
120.662
118.3
115.632
112.667
109.417
105.895
102.113
98.088
93.834
89.368
84.708
79.871
74.876
69.743
64.492
59.142
53.715
48.231
42.712
37.178
31.65
26.148
20.692
15.303
9.999
4.798
-0.284
-5.231
-10.028
-14.662
-19.122
-23.396
-27.476
-31.353
-35.02
-38.471
-41.701
-44.707
-47.486
-50.037
-52.359
-54.453
-56.32
-57.963
-59.385
-60.591
-61.585
-62.375
-62.968
-63.37
-63.592
-63.641
-63.529
-63.267
-62.864
-62.332
-61.682
-60.927
-60.076
-59.142
-58.134
-57.063
-55.938
-54.77
-53.568
-52.339
-51.093
-49.837
-48.579
-47.326
-46.085
-44.861
-43.661
-42.491
-41.355
-40.259
-39.206
-38.201
-37.247
-36.348
-35.505
-34.721
-33.998
-33.335
-32.735
-32.196
-31.719
-31.302
-30.946
-30.65
-30.412
-30.232
-30.109
-30.043
-30.033
-30.077
-30.177
-30.331
-30.539
-30.8
-31.114
-31.48
-31.897
-32.365
-32.882
-33.448
-34.061
-34.72
-35.423
-36.168
-36.953
-37.775
-38.631
-39.521
-40.439
-41.385
-42.354
-43.343
-44.35
-45.37
-46.399
-47.432
-48.466
-49.495
-50.513
-51.514
-52.492
-53.44
-54.351
-55.218
-56.034
-56.79
-57.481
-58.097
-58.632
-59.078
-59.429
-59.676
-59.814
-59.836
-59.736
-59.509
-59.15
-58.656
-58.022
-57.246
-56.325
-55.258
-54.045
-52.686
-51.181
-49.533
-47.746
-45.824
-43.772
-41.599
-39.311
-36.92
-34.437
-31.874
-29.246
-26.567
-23.854
-21.126
-18.399
-15.693
-13.026
-10.416
-7.883
-5.446
-3.122
-0.93
1.112
2.987
4.675
6.16
7.423
8.452
9.237
9.767
10.037
10.037
9.759
9.195
8.342
7.196
5.753
4.012
1.98
-0.327
-2.877
-5.633
-8.554
-11.6
-14.736
-17.921
-21.113
-24.264
-27.324
-30.244
-32.981
-35.49
-37.722
-39.64
-41.219
-42.474
-43.475
-44.305
-45.063
-45.836
-46.683
-47.682
-48.945
-50.584
-52.709
-55.412
-58.719
-62.693
-67.524
-73.272
-79.812
-86.852
-93.782
-99.975
-105.043
-108.499
-109.617
-108.03
-103.817
-97.413
-90.041
-83.026
-77.151
-73.326
-72.894
-75.714
-79.535
-81.726
-78.544
-68.109
-53.554
-36.857
-15.936
14.103
63.533
142.09
249.579
380.831
526.767
673.284
810.765
928.734
1011.753
1045.885
1016.61
916.988
754.087
546.232
323.699
117.493
-48.17
-158.147
-214.922
-228.949
-212.229
-180.356
-140.567
-99.067
-66.207
-44.966
-37.828
-42.416
-47.712
-49.123
-46.427
-41.964
-42.426
-49.163
-58.892
-68.997
-76.49
-80.153
-80.477
-77.284
-70.707
-61.885
-52.439
-43.573
-35.905
-29.594
-24.601
-21.31
-20.079
-20.708
-22.601
-25.177
-28.074
-31.193
-34.579
-38.101
-41.581
-44.97
-48.285
-51.589
-54.904
-58.128
-61.084
-63.645
-65.625
-66.695
-66.805
-66.134
-64.683
-62.671
-59.726
-54.56
-47.592
-40.292
-35.132
-36.405
-44.529
-56.569
-67.571
-69.622
-59.648
-39.116
-13.333
7.879
18.758
17.165
5.843
-6.959
-15.74
-17.025
-10.991
-2.307
6.129
12.589
16.66
20.051
23.522
27.073
30.763
34.285
37.591
40.951
44.45
48.074
51.833
55.705
59.665
63.696
67.759
71.798
75.782
79.711
83.573
87.35
91.028
94.587
98.013
101.293
104.413
107.358
110.111
112.657
114.981
117.07
118.911
120.493
121.803
122.831
123.569
124.01
124.148
123.978
123.497
122.704
121.597
120.179
118.451
116.418
114.086
111.462
108.554
105.373
101.929
98.234
94.304
90.151
85.791
81.243
76.522
71.647
66.638
61.514
56.294
50.999
45.649
40.262
34.86
29.46
24.082
18.744
13.463
8.256
3.138
-1.874
-6.767
-11.528
-16.143
-20.602
-24.894
-29.01
-32.94
-36.678
-40.217
-43.552
-46.678
-49.592
-52.291
-54.774
-57.041
-59.093
-60.932
-62.56
-63.982
-65.201
-66.223
-67.055
-67.704
-68.176
-68.479
-68.623
-68.615
-68.465
-68.18
-67.772
-67.248
-66.618
-65.89
-65.073
-64.176
-63.208
-62.176
-61.091
-59.96
-58.792
-57.595
-56.377
-55.147
-53.913
-52.68
-51.456
-50.248
-49.06
-47.901
-46.773
-45.683
-44.634
-43.631
-42.677
-41.775
-40.927
-40.135
-39.399
-38.722
-38.104
-37.546
-37.048
-36.611
-36.236
-35.923
-35.675
-35.492
-35.374
-35.322
-35.335
-35.412
-35.552
-35.751
-36.007
-36.315
-36.674
-37.082
-37.541
-38.048
-38.604
-39.209
-39.864
-40.569
-41.326
-42.13
-42.979
-43.869
-44.8
-45.773
-46.793
-47.859
-48.965
-50.11
-51.288
-52.49
-53.704
-54.912
-56.085
-57.205
-58.262
-59.251
-60.175
-61.037
-61.836
-62.578
-63.266
-63.906
-64.507
-65.074
-65.604
-66.111
-66.613
-67.144
-67.751
-68.46
-69.277
-70.205
-71.23
-72.334
-73.497
-74.686
-75.858
-76.986
-78.041
-79
-79.852
-80.561
-81.085
-81.373
-81.358
-80.998
-80.269
-79.147
-77.628
-75.719
-73.427
-70.78
-67.814
-64.541
-60.974
-57.133
-53.034
-48.719
-44.238
-39.642
-34.999
-30.372
-25.82
-21.41
-17.202
-13.245
-9.595
-6.299
-3.414
-1.017
0.828
2.069
2.662
2.582
1.813
0.339
-1.834
-4.68
-8.151
-12.18
-16.701
-21.638
-26.904
-32.399
-37.998
-43.567
-48.989
-54.147
-58.937
-63.264
-67.033
-70.157
-72.59
-74.334
-75.425
-75.943
-75.963
-75.544
-74.785
-73.821
-72.814
-71.928
-71.312
-71.073
-71.362
-72.453
-74.512
-77.518
-81.259
-85.214
-88.813
-91.67
-93.323
-93.058
-90.475
-85.721
-79.41
-72.972
-68.055
-65.686
-66.721
-72.435
-82.675
-95.138
-107.239
-115.125
-116.119
-111.753
-102.122
-83.745
-51.404
3.231
86.245
195.05
323.076
461.733
600.771
733.442
851.994
944.613
998.458
999.326
937.547
813.47
636.565
427.146
212.96
20.466
-127.416
-217.72
-252.59
-241.438
-199.825
-146.217
-93.209
-52.379
-31.826
-30.934
-46.091
-68.029
-85.67
-95.209
-96.368
-92.697
-89.777
-88.439
-87.726
-86.48
-82.775
-76.738
-69.609
-62.146
-55.352
-50.013
-46.233
-44.046
-43.398
-44.015
-45.717
-48.368
-51.731
-55.56
-59.649
-63.808
-67.883
-71.755
-75.281
-78.316
-80.761
-82.558
-83.698
-84.191
-84.044
-83.272
-81.895
-79.972
-77.592
-74.837
-71.785
-68.511
-65.08
-61.57
-58.063
-54.621
-51.279
-48.057
-44.955
-41.973
-39.115
-36.378
-33.759
-31.237
-28.787
-26.387
-24.023
-21.679
-19.338
-16.98
-14.578
-12.113
-9.577
-6.961
-4.259
-1.466
1.428
4.426
7.528
10.732
14.037
17.445
20.964
24.594
28.333
32.176
36.115
40.137
44.231
48.37
52.525
56.673
60.794
64.872
68.904
72.879
76.787
80.623
84.37
88.017
91.559
94.982
98.273
101.43
104.455
107.369
110.209
112.987
115.703
118.357
120.922
123.38
125.716
127.883
129.842
131.559
132.986
134.095
134.862
135.239
135.176
134.607
133.448
131.65
129.189
126.035
122.187
117.639
112.382
106.463
99.94
92.866
85.31
77.332
68.99
60.382
51.616
42.802
34.063
25.49
17.15
9.125
1.485
-5.698
-12.346
-18.432
-23.955
-28.904
-33.286
-37.111
-40.395
-43.191
-45.582
-47.629
-49.39
-50.91
-52.212
-53.338
-54.333
-55.239
-56.107
-56.962
-57.809
-58.663
-59.534
-60.421
-61.313
-62.179
-62.961
-63.627
-64.156
-64.535
-64.765
-64.839
-64.747
-64.484
-64.046
-63.435
-62.657
-61.714
-60.607
-59.348
-57.953
-56.45
-54.877
-53.261
-51.622
-49.975
-48.332
-46.702
-45.098
-43.524
-41.982
-40.475
-39.007
-37.586
-36.217
-34.906
-33.652
-32.457
-31.315
-30.226
-29.19
-28.204
-27.268
-26.383
-25.55
-24.769
-24.045
-23.382
-22.781
-22.242
-21.766
-21.355
-21.009
-20.73
-20.514
-20.363
-20.275
-20.249
-20.285
-20.383
-20.54
-20.756
-21.031
-21.368
-21.766
-22.23
-22.759
-23.353
-24.013
-24.738
-25.525
-26.372
-27.272
-28.224
-29.224
-30.27
-31.367
-32.516
-33.709
-34.939
-36.195
-37.46
-38.718
-39.952
-41.141
-42.267
-43.323
-44.305
-45.22
-46.078
-46.879
-47.62
-48.286
-48.862
-49.342
-49.722
-50.002
-50.201
-50.336
-50.43
-50.526
-50.654
-50.829
-51.059
-51.322
-51.582
-51.814
-51.997
-52.124
-52.198
-52.212
-52.159
-52.026
-51.777
-51.373
-50.765
-49.87
-48.615
-46.94
-44.793
-42.174
-39.12
-35.666
-31.85
-27.706
-23.255
-18.529
-13.573
-8.437
-3.192
2.084
7.291
12.292
16.936
21.07
24.553
27.299
29.272
30.443
30.8
30.328
29.006
26.838
23.84
20.035
15.46
10.166
4.235
-2.198
-8.976
-15.916
-22.847
-29.642
-36.202
-42.439
-48.276
-53.627
-58.41
-62.573
-66.06
-68.823
-70.823
-72.052
-72.566
-72.478
-71.931
-71.072
-70.02
-68.888
-67.809
-66.907
-66.301
-66.127
-66.452
-67.403
-69.239
-72
-75.59
-79.781
-83.952
-87.514
-90.136
-91.185
-89.884
-86.243
-80.472
-73.117
-65.957
-60.328
-56.84
-57.064
-61.507
-68.013
-74.725
-79.107
-78.902
-75.964
-71.485
-62.983
-44.52
-7.722
55.127
147.794
267.327
408.154
561.75
713.885
848.077
946.798
993.646
979.151
904.606
777.756
610.921
422.018
228.517
48.296
-98.585
-197.993
-244.968
-242
-202.165
-144.892
-86.46
-41.999
-20.932
-21.842
-39.556
-63.538
-82.152
-91.795
-92.658
-88.631
-85.403
-83.821
-82.789
-80.992
-76.525
-69.542
-61.345
-52.793
-44.891
-38.405
-33.459
-30.105
-28.329
-27.924
-28.745
-30.693
-33.595
-37.243
-41.463
-46.073
-50.885
-55.734
-60.417
-64.73
-68.535
-71.743
-74.306
-76.199
-77.395
-77.861
-77.597
-76.635
-75.013
-72.782
-69.991
-66.702
-63.003
-59.003
-54.826
-50.571
-46.306
-42.072
-37.897
-33.8
-29.802
-25.918
-22.145
-18.474
-14.899
-11.414
-8.018
-4.705
-1.452
1.773
5.006
8.274
11.592
14.972
18.42
21.942
25.542
29.22
32.968
36.779
40.65
44.58
48.569
52.614
56.708
60.841
65.003
69.185
73.377
77.569
81.748
85.902
90.02
94.09
98.102
102.042
105.896
109.648
113.281
116.779
120.125
123.301
126.291
129.078
131.645
133.977
136.061
137.882
139.427
140.685
141.645
142.298
142.635
142.651
142.339
141.695
140.719
139.409
137.767
135.795
133.498
130.881
127.953
124.722
121.199
117.396
113.327
109.007
104.453
99.682
94.712
89.565
84.259
78.818
73.261
67.612
61.892
56.123
50.328
44.529
38.746
33.001
27.316
21.708
16.197
10.802
5.539
0.424
-4.529
-9.307
-13.896
-18.286
-22.467
-26.431
-30.17
-33.679
-36.952
-39.988
-42.783
-45.339
-47.656
-49.736
-51.583
-53.201
-54.597
-55.777
-56.747
-57.517
-58.095
-58.491
-58.714
-58.775
-58.685
-58.454
-58.095
-57.617
-57.032
-56.35
-55.583
-54.739
-53.829
-52.863
-51.849
-50.796
-49.713
-48.608
-47.489
-46.363
-45.236
-44.116
-43.006
-41.913
-40.841
-39.794
-38.775
-37.788
-36.836
-35.92
-35.043
-34.207
-33.413
-32.662
-31.955
-31.293
-30.675
-30.103
-29.577
-29.096
-28.662
-28.275
-27.935
-27.643
-27.4
-27.206
-27.063
-26.971
-26.93
-26.94
-27.003
-27.118
-27.286
-27.506
-27.78
-28.108
-28.488
-28.922
-29.409
-29.947
-30.537
-31.176
-31.864
-32.597
-33.375
-34.196
-35.056
-35.953
-36.884
-37.846
-38.834
-39.845
-40.873
-41.913
-42.96
-44.006
-45.046
-46.073
-47.081
-48.062
-49.009
-49.916
-50.776
-51.581
-52.325
-53
-53.6
-54.116
-54.544
-54.876
-55.107
-55.232
-55.247
-55.147
-54.929
-54.589
-54.127
-53.539
-52.825
-51.984
-51.018
-49.928
-48.717
-47.389
-45.95
-44.406
-42.766
-41.04
-39.239
-37.374
-35.458
-33.507
-31.532
-29.551
-27.576
-25.622
-23.705
-21.837
-20.035
-18.313
-16.688
-15.176
-13.792
-12.552
-11.469
-10.554
-9.816
-9.26
-8.894
-8.723
-8.759
-9.013
-9.492
-10.206
-11.161
-12.358
-13.791
-15.442
-17.278
-19.264
-21.365
-23.543
-25.772
-28.019
-30.252
-32.436
-34.524
-36.473
-38.241
-39.784
-41.064
-42.054
-42.748
-43.19
-43.468
-43.675
-43.903
-44.221
-44.687
-45.399
-46.47
-48.006
-50.114
-52.843
-56.268
-60.585
-65.884
-72.084
-78.901
-85.736
-91.961
-97.169
-100.858
-102.349
-101.283
-97.71
-92.27
-86.415
-81.444
-78.173
-77.57
-80.636
-87.745
-97.458
-106.363
-110.308
-106.077
-94.018
-76.072
-51.081
-15.231
38.195
115.834
217.034
335.684
462.731
588.002
703.703
801.687
872.801
905.777
889.486
820.264
700.263
539.99
358.837
176.229
12.297
-114.557
-195.739
-229.969
-222.616
-187.957
-141.178
-95.681
-64.095
-51.161
-55.915
-73.896
-96.241
-115.95
-128.496
-131.954
-127.145
-116.591
-104.525
-93.988
-87.493
-85.09
-83.571
-81.13
-76.641
-70.306
-64.424
-60.065
-57.305
-56.1
-55.891
-56.426
-57.829
-59.99
-62.654
-65.631
-68.733
-71.802
-74.725
-77.353
-79.511
-81.1
-82.084
-82.455
-82.232
-81.446
-80.134
-78.349
-76.159
-73.626
-70.81
-67.772
-64.572
-61.277
-57.952
-54.656
-51.443
-48.347
-45.391
-42.582
-39.917
-37.386
-34.974
-32.662
-30.429
-28.258
-26.134
-24.041
-21.968
-19.898
-17.817
-15.71
-13.563
-11.365
-9.106
-6.781
-4.384
-1.911
0.64
3.268
5.973
8.757
11.618
14.558
17.576
20.67
23.837
27.072
30.371
33.726
37.128
40.568
44.034
47.514
50.996
54.465
57.908
61.309
64.654
67.928
71.114
74.197
77.162
79.993
82.674
85.192
87.531
89.679
91.622
93.35
94.851
96.115
97.134
97.9
98.407
98.649
98.621
98.323
97.751
96.906
95.79
94.406
92.758
90.853
88.699
86.302
83.675
80.828
77.772
74.52
71.087
67.485
63.731
59.839
55.826
51.706
47.497
43.215
38.876
34.495
30.089
25.672
21.26
16.868
12.51
8.199
3.949
-0.228
-4.32
-8.315
-12.204
-15.976
-19.624
-23.14
-26.517
-29.749
-32.833
-35.765
-38.541
-41.161
-43.622
-45.926
-48.073
-50.065
-51.904
-53.592
-55.135
-56.534
-57.796
-58.926
-59.927
-60.807
-61.57
-62.223
-62.771
-63.222
-63.58
-63.854
-64.048
-64.171
-64.227
-64.225
-64.168
-64.065
-63.919
-63.736
-63.521
-63.279
-63.013
-62.726
-62.423
-62.107
-61.778
-61.44
-61.095
-60.743
-60.385
-60.022
-59.654
-59.281
-58.904
-58.523
-58.136
-57.745
-57.348
-56.946
-56.538
-56.124
-55.703
-55.276
-54.841
-54.398
-53.947
-53.488
-53.021
-52.545
-52.062
-51.571
-51.073
-50.569
-50.06
-49.548
-49.033
-48.518
-48.004
-47.493
-46.987
-46.489
-46
-45.523
-45.06
-44.612
-44.182
-43.772
-43.382
-43.013
-42.667
-42.343
-42.043
-41.767
-41.513
-41.281
-41.071
-40.881
-40.709
-40.553
-40.412
-40.282
-40.161
-40.045
-39.931
-39.815
-39.693
-39.56
-39.412
-39.245
-39.053
-38.832
-38.577
-38.283
-37.945
-37.56
-37.124
-36.632
-36.082
-35.471
-34.798
-34.061
-33.259
-32.392
-31.462
-30.47
-29.419
-28.312
-27.155
-25.953
-24.714
-23.446
-22.159
-20.862
-19.568
-18.288
-17.033
-15.815
-14.645
-13.536
-12.498
-11.544
-10.686
-9.935
-9.306
-8.813
-8.466
-8.276
-8.249
-8.391
-8.705
-9.197
-9.873
-10.739
-11.8
-13.059
-14.521
-16.188
-18.057
-20.115
-22.329
-24.665
-27.086
-29.554
-32.035
-34.494
-36.888
-39.175
-41.312
-43.25
-44.946
-46.361
-47.447
-48.172
-48.52
-48.511
-48.225
-47.758
-47.205
-46.654
-46.171
-45.844
-45.8
-46.149
-46.987
-48.416
-50.481
-53.306
-57.12
-61.933
-67.591
-73.788
-79.891
-85.343
-89.782
-92.542
-92.839
-90.548
-85.79
-79.048
-71.81
-65.169
-59.773
-57.222
-57.823
-59.324
-59.801
-56.755
-49.883
-43.662
-39.105
-32.626
-13.897
32.179
111.402
221.252
348.829
475.12
592.078
696.155
787.23
867.694
926.906
948.333
917.469
823.527
671.829
483.885
288.566
116.792
-8.7
-82.871
-114.537
-120.826
-121.072
-122.605
-123.615
-121.293
-110.365
-93.995
-80.658
-71.848
-69.053
-70.877
-72.322
-74.216
-77.27
-80.08
-82.482
-82.786
-79.719
-74.02
-66.497
-57.941
-49.177
-40.871
-33.694
-28.191
-24.643
-22.99
-22.975
-24.381
-27.016
-30.675
-35.159
-40.262
-45.775
-51.531
-57.385
-63.18
-68.792
-74.109
-79.014
-83.393
-87.126
-90.13
-92.371
-93.855
-94.607
-94.65
-94.011
-92.733
-90.888
-88.555
-85.814
-82.736
-79.361
-75.739
-71.927
-67.992
-64.014
-60.047
-56.12
-52.25
-48.444
-44.712
-41.062
-37.49
-33.972
-30.489
-27.024
-23.566
-20.115
-16.661
-13.19
-9.681
-6.111
-2.464
1.267
5.087
8.998
13.003
17.099
21.28
25.531
29.841
34.2
38.599
43.032
47.489
51.957
56.422
60.871
65.289
69.663
73.979
78.219
82.37
86.416
90.343
94.137
97.784
101.268
104.574
107.684
110.584
113.258
115.691
117.87
119.78
121.41
122.75
123.79
124.522
124.941
125.04
124.816
124.268
123.394
122.194
120.673
118.832
116.679
114.219
111.46
108.412
105.085
101.491
97.644
93.557
89.246
84.727
80.019
75.139
70.107
64.943
59.668
54.302
48.867
43.384
37.875
32.361
26.863
21.402
15.997
10.667
5.432
0.309
-4.685
-9.534
-14.224
-18.74
-23.07
-27.202
-31.127
-34.833
-38.315
-41.563
-44.574
-47.341
-49.863
-52.136
-54.161
-55.938
-57.468
-58.757
-59.807
-60.624
-61.216
-61.591
-61.757
-61.725
-61.504
-61.106
-60.543
-59.827
-58.97
-57.987
-56.889
-55.69
-54.404
-53.044
-51.623
-50.154
-48.648
-47.12
-45.579
-44.038
-42.509
-41
-39.523
-38.086
-36.7
-35.371
-34.107
-32.916
-31.804
-30.774
-29.832
-28.981
-28.225
-27.563
-26.999
-26.532
-26.161
-25.887
-25.707
-25.619
-25.621
-25.709
-25.879
-26.129
-26.453
-26.848
-27.308
-27.829
-28.407
-29.037
-29.714
-30.435
-31.194
-31.988
-32.812
-33.664
-34.537
-35.429
-36.336
-37.254
-38.179
-39.109
-40.04
-40.969
-41.892
-42.809
-43.715
-44.609
-45.488
-46.35
-47.192
-48.013
-48.81
-49.581
-50.324
-51.035
-51.713
-52.357
-52.962
-53.527
-54.049
-54.525
-54.95
-55.323
-55.638
-55.889
-56.073
-56.182
-56.213
-56.161
-56.021
-55.79
-55.462
-55.033
-54.502
-53.868
-53.125
-52.271
-51.301
-50.213
-49.011
-47.699
-46.28
-44.758
-43.138
-41.428
-39.637
-37.78
-35.859
-33.879
-31.848
-29.768
-27.658
-25.532
-23.405
-21.294
-19.208
-17.151
-15.14
-13.191
-11.31
-9.512
-7.802
-6.179
-4.673
-3.306
-2.097
-1.072
-0.235
0.404
0.832
1.04
1.012
0.73
0.193
-0.598
-1.645
-2.93
-4.439
-6.163
-8.049
-10.052
-12.13
-14.228
-16.306
-18.323
-20.227
-21.969
-23.507
-24.789
-25.788
-26.49
-26.898
-27.074
-27.086
-27.009
-26.945
-26.965
-27.158
-27.655
-28.569
-30.004
-32.061
-34.777
-38.221
-42.594
-47.933
-54.096
-60.811
-67.503
-73.62
-78.844
-82.679
-84.394
-83.653
-80.514
-75.371
-69.324
-63.499
-58.537
-55.257
-54.929
-57.076
-59.187
-58.973
-53.186
-41.118
-27.107
-12.498
5.082
31.028
77.191
152.09
256.264
385.957
529.617
672.972
801.769
900.21
956.074
959.978
910.431
814.211
680.364
523.104
355.818
191.467
46.785
-65.362
-137.088
-169.179
-172.726
-160.861
-145.475
-132.37
-121.751
-113.211
-104.733
-96.439
-89.391
-83.533
-81.071
-82.495
-86.821
-93.141
-98.368
-100.588
-99.732
-95.861
-89.889
-82.807
-75.057
-67.351
-60.582
-55.165
-51.227
-48.686
-47.21
-46.546
-46.541
-46.995
-47.693
-48.482
-49.234
-49.862
-50.329
-50.581
-50.574
-50.295
-49.743
-48.945
-47.943
-46.778
-45.503
-44.176
-42.838
-41.513
-40.202
-38.889
-37.578
-36.281
-35.008
-33.768
-32.541
-31.305
-30.043
-28.739
-27.376
-25.936
-24.393
-22.723
-20.926
-19.011
-17.003
-14.942
-12.848
-10.734
-8.613
-6.492
-4.388
-2.315
-0.271
1.749
3.75
5.739
7.715
9.678
11.642
13.624
15.643
17.726
19.888
22.138
24.484
26.933
29.487
32.144
34.898
37.734
40.64
43.605
46.617
49.664
52.731
55.798
58.848
61.861
64.82
67.706
70.5
73.185
75.743
78.158
80.416
82.503
84.405
86.109
87.603
88.872
89.907
90.697
91.233
91.507
91.512
91.244
90.701
89.88
88.784
87.412
85.771
83.864
81.698
79.282
76.624
73.735
70.627
67.314
63.808
60.125
56.28
52.291
48.173
43.943
39.619
35.219
30.758
26.255
21.725
17.187
12.654
8.144
3.671
-0.75
-5.105
-9.382
-13.569
-17.653
-21.627
-25.479
-29.202
-32.79
-36.235
-39.534
-42.681
-45.673
-48.507
-51.183
-53.699
-56.055
-58.254
-60.296
-62.184
-63.922
-65.512
-66.961
-68.271
-69.447
-70.494
-71.417
-72.221
-72.911
-73.492
-73.969
-74.347
-74.632
-74.827
-74.937
-74.966
-74.919
-74.798
-74.607
-74.349
-74.028
-73.645
-73.203
-72.705
-72.154
-71.551
-70.898
-70.197
-69.449
-68.657
-67.821
-66.943
-66.024
-65.066
-64.07
-63.04
-61.976
-60.882
-59.76
-58.613
-57.444
-56.256
-55.052
-53.836
-52.611
-51.381
-50.15
-48.923
-47.703
-46.496
-45.308
-44.142
-43.004
-41.9
-40.833
-39.81
-38.834
-37.912
-37.046
-36.243
-35.506
-34.839
-34.247
-33.732
-33.296
-32.942
-32.669
-32.477
-32.365
-32.33
-32.371
-32.484
-32.667
-32.917
-33.23
-33.602
-34.031
-34.513
-35.043
-35.614
-36.218
-36.848
-37.494
-38.148
-38.799
-39.437
-40.05
-40.627
-41.162
-41.644
-42.064
-42.41
-42.666
-42.821
-42.869
-42.805
-42.627
-42.335
-41.931
-41.422
-40.827
-40.162
-39.441
-38.672
-37.851
-36.977
-36.051
-35.077
-34.06
-32.998
-31.873
-30.676
-29.403
-28.047
-26.603
-25.052
-23.353
-21.478
-19.406
-17.137
-14.695
-12.103
-9.383
-6.57
-3.705
-0.849
1.913
4.516
6.913
9.056
10.904
12.397
13.444
13.972
13.925
13.269
11.996
10.099
7.576
4.458
0.803
-3.295
-7.715
-12.353
-17.133
-21.981
-26.823
-31.574
-36.118
-40.344
-44.164
-47.494
-50.268
-52.417
-53.893
-54.707
-54.923
-54.664
-54.071
-53.245
-52.283
-51.299
-50.409
-49.738
-49.417
-49.533
-50.204
-51.683
-54.139
-57.575
-61.828
-66.42
-70.78
-74.467
-76.949
-77.438
-75.433
-71.004
-64.697
-57.861
-52.196
-48.917
-49.158
-54.591
-65.214
-78.348
-90.975
-98.795
-99.617
-97.198
-93.489
-86.017
-67.915
-24.499
56.098
175.437
327.643
496.5
664.389
818.241
944.129
1033.088
1074.203
1054.263
970.009
822.32
623.976
401.787
182.493
-6.513
-145.044
-227.705
-258.696
-248.607
-210.85
-158.471
-102.043
-53.562
-24.558
-18.682
-34.138
-61.139
-85.769
-101.482
-106.892
-105.636
-104.382
-104.888
-106.341
-107.372
-105.72
-101.344
-95.532
-89.122
-83.146
-78.32
-74.669
-72.175
-70.719
-69.983
-69.748
-69.869
-70.181
-70.533
-70.81
-70.905
-70.735
-70.27
-69.484
-68.369
-66.936
-65.208
-63.228
-61.05
-58.734
-56.349
-53.96
-51.637
-49.433
-47.387
-45.532
-43.901
-42.509
-41.357
-40.414
-39.613
-38.883
-38.168
-37.413
-36.575
-35.609
-34.469
-33.114
-31.52
-29.673
-27.566
-25.196
-22.556
-19.65
-16.499
-13.141
-9.638
-6.044
-2.394
1.282
4.966
8.64
12.29
15.905
19.493
23.06
26.611
30.148
33.668
37.172
40.67
44.176
47.709
51.283
54.901
58.565
62.269
66.007
69.77
73.541
77.298
81.02
84.687
88.282
91.789
95.191
98.468
101.6
104.568
107.354
109.941
112.314
114.457
116.357
118.002
119.383
120.493
121.326
121.874
122.133
122.097
121.763
121.13
120.196
118.961
117.428
115.6
113.483
111.083
108.41
105.473
102.283
98.852
95.196
91.327
87.262
83.017
78.611
74.06
69.384
64.602
59.734
54.798
49.814
44.801
39.778
34.764
29.776
24.831
19.948
15.141
10.427
5.821
1.336
-3.015
-7.219
-11.264
-15.141
-18.841
-22.355
-25.676
-28.798
-31.716
-34.428
-36.929
-39.219
-41.297
-43.164
-44.823
-46.275
-47.525
-48.578
-49.44
-50.117
-50.617
-50.948
-51.118
-51.136
-51.012
-50.756
-50.378
-49.889
-49.298
-48.616
-47.855
-47.024
-46.134
-45.194
-44.216
-43.208
-42.181
-41.142
-40.103
-39.071
-38.054
-37.061
-36.099
-35.175
-34.296
-33.468
-32.696
-31.985
-31.34
-30.764
-30.261
-29.833
-29.482
-29.21
-29.017
-28.903
-28.868
-28.91
-29.028
-29.22
-29.483
-29.814
-30.211
-30.67
-31.187
-31.759
-32.382
-33.051
-33.762
-34.512
-35.293
-36.103
-36.935
-37.785
-38.646
-39.513
-40.381
-41.243
-42.094
-42.927
-43.737
-44.516
-45.26
-45.961
-46.615
-47.216
-47.759
-48.239
-48.651
-48.991
-49.256
-49.441
-49.543
-49.559
-49.486
-49.321
-49.063
-48.707
-48.254
-47.7
-47.044
-46.285
-45.423
-44.455
-43.383
-42.207
-40.928
-39.547
-38.066
-36.488
-34.817
-33.058
-31.215
-29.295
-27.303
-25.247
-23.136
-20.976
-18.778
-16.551
-14.304
-12.049
-9.797
-7.562
-5.356
-3.193
-1.087
0.946
2.893
4.739
6.471
8.075
9.538
10.848
11.992
12.956
13.728
14.295
14.647
14.774
14.668
14.328
13.751
12.939
11.892
10.608
9.086
7.324
5.321
3.075
0.59
-2.127
-5.054
-8.162
-11.417
-14.784
-18.223
-21.703
-25.184
-28.629
-31.999
-35.245
-38.316
-41.161
-43.722
-45.945
-47.788
-49.229
-50.287
-51.019
-51.492
-51.782
-51.943
-52.044
-52.188
-52.495
-53.083
-54.065
-55.513
-57.529
-60.332
-64.055
-68.648
-73.866
-79.174
-84.016
-88.038
-90.826
-91.735
-90.367
-86.767
-81.553
-76.107
-71.697
-69.097
-69.071
-72.513
-80.048
-90.232
-99.406
-103.557
-98.622
-84.691
-65.815
-41.484
-9.319
36.577
107.695
206.153
327.879
465.921
604.869
733.703
844.261
925.671
970.167
967.808
909.2
793.484
627.351
428.374
224.473
42.739
-95.674
-179.492
-214.361
-212.556
-185.099
-145.353
-100.423
-57.076
-28.168
-18.71
-29.096
-53.772
-78.16
-94.238
-100.074
-97.72
-94.325
-92.673
-92.065
-91.467
-88.65
-83.367
-76.957
-70.307
-64.388
-59.921
-56.974
-55.555
-55.584
-56.758
-58.847
-61.68
-65.061
-68.773
-72.602
-76.331
-79.77
-82.787
-85.251
-87.042
-88.087
-88.355
-87.875
-86.698
-84.881
-82.491
-79.592
-76.265
-72.603
-68.71
-64.704
-60.717
-56.861
-53.229
-49.906
-46.934
-44.33
-42.08
-40.125
-38.407
-36.878
-35.486
-34.195
-32.967
-31.755
-30.51
-29.181
-27.7
-26.017
-24.091
-21.885
-19.389
-16.606
-13.558
-10.291
-6.851
-3.267
0.432
4.232
8.122
12.084
16.102
20.166
24.251
28.336
32.405
36.434
40.412
44.333
48.195
52.009
55.781
59.508
63.185
66.801
70.339
73.783
77.116
80.313
83.356
86.227
88.909
91.388
93.65
95.677
97.455
98.965
100.191
101.12
101.742
102.047
102.027
101.679
101
99.991
98.653
96.989
95.003
92.698
90.08
87.156
83.934
80.425
76.64
72.59
68.29
63.755
59.002
54.048
48.911
43.609
38.164
32.594
26.919
21.162
15.341
9.477
3.59
-2.3
-8.174
-14.015
-19.803
-25.521
-31.153
-36.683
-42.095
-47.376
-52.512
-57.491
-62.301
-66.931
-71.372
-75.615
-79.652
-83.477
-87.083
-90.465
-93.619
-96.543
-99.236
-101.696
-103.925
-105.924
-107.696
-109.246
-110.578
-111.697
-112.609
-113.323
-113.844
-114.18
-114.341
-114.334
-114.17
-113.857
-113.406
-112.826
-112.13
-111.326
-110.427
-109.442
-108.383
-107.261
-106.087
-104.87
-103.622
-102.354
-101.075
-99.795
-98.525
-97.273
-96.049
-94.86
-93.715
-92.62
-91.58
-90.603
-89.693
-88.854
-88.091
-87.407
-86.807
-86.292
-85.865
-85.528
-85.283
-85.129
-85.067
-85.097
-85.217
-85.427
-85.723
-86.104
-86.568
-87.111
-87.731
-88.424
-89.187
-90.015
-90.905
-91.851
-92.849
-93.894
-94.981
-96.106
-97.264
-98.451
-99.663
-100.894
-102.141
-103.398
-104.661
-105.923
-107.178
-108.419
-109.641
-110.835
-111.998
-113.122
-114.203
-115.235
-116.215
-117.139
-118.003
-118.801
-119.528
-120.179
-120.746
-121.225
-121.608
-121.89
-122.064
-122.123
-122.066
-121.889
-121.587
-121.156
-120.585
-119.871
-119.013
-118.013
-116.875
-115.606
-114.215
-112.716
-111.132
-109.486
-107.796
-106.084
-104.357
-102.622
-100.89
-99.172
-97.482
-95.825
-94.193
-92.573
-90.957
-89.332
-87.687
-86.003
-84.237
-82.358
-80.347
-78.192
-75.904
-73.502
-70.999
-68.416
-65.783
-63.141
-60.555
-58.109
-55.865
-53.885
-52.234
-50.977
-50.208
-49.999
-50.389
-51.394
-53.001
-55.181
-57.908
-61.144
-64.825
-68.868
-73.168
-77.587
-82.015
-86.351
-90.482
-94.301
-97.695
-100.574
-102.92
-104.764
-106.158
-107.165
-107.826
-108.198
-108.388
-108.52
-108.724
-109.151
-109.897
-111.098
-112.995
-115.712
-119.247
-123.453
-127.864
-131.948
-135.326
-137.473
-137.698
-135.692
-131.432
-125.252
-118.453
-112.462
-108.218
-106.994
-109.436
-114.503
-120.794
-126.237
-129.16
-130.324
-130.408
-128.289
-118.665
-92.433
-40.891
41.745
154.042
288.955
435.885
582.21
716.02
823.947
895.385
920.775
892.357
811.187
680.823
511.858
323.893
136.407
-28.73
-153.063
-229.694
-259.605
-251.277
-219.327
-176.912
-135.384
-105.282
-90.189
-89.304
-98.164
-107.142
-111.437
-110.845
-107.022
-105.116
-106.592
-109.295
-111.534
-111.161
-107.6
-102.025
-95.33
-88.245
-81.567
-75.891
-71.505
-68.521
-66.802
-66.026
-66.002
-66.625
-67.735
-69.144
-70.68
-72.178
-73.524
-74.659
-75.488
-75.921
-75.917
-75.471
-74.633
-73.474
-72.055
-70.419
-68.598
-66.614
-64.468
-62.172
-59.747
-57.22
-54.631
-52.023
-49.434
-46.897
-44.423
-42
-39.591
-37.156
-34.659
-32.079
-29.41
-26.662
-23.858
-21.025
-18.18
-15.336
-12.496
-9.656
-6.808
-3.943
-1.053
1.863
4.793
7.727
10.657
13.58
16.502
19.436
22.401
25.416
28.498
31.662
34.914
38.257
41.69
45.207
48.799
52.458
56.177
59.949
63.769
67.627
71.512
75.412
79.31
83.191
87.037
90.83
94.554
98.191
101.726
105.144
108.429
111.568
114.546
117.347
119.956
122.359
124.542
126.49
128.191
129.634
130.808
131.706
132.321
132.647
132.683
132.425
131.874
131.032
129.901
128.487
126.796
124.834
122.612
120.139
117.427
114.488
111.337
107.988
104.458
100.762
96.92
92.949
88.868
84.696
80.454
76.16
71.836
67.502
63.178
58.884
54.639
50.463
46.373
42.387
38.521
34.789
31.206
27.784
24.533
21.464
18.585
15.904
13.425
11.155
9.095
7.249
5.616
4.196
2.989
1.99
1.196
0.603
0.206
-0.003
-0.029
0.119
0.433
0.905
1.526
2.286
3.175
4.183
5.3
6.518
7.824
9.211
10.669
12.19
13.765
15.388
17.051
18.748
20.476
22.228
24.002
25.796
27.607
29.434
31.276
33.134
35.009
36.901
38.811
40.741
42.694
44.67
46.671
48.699
50.753
52.834
54.943
57.079
59.242
61.432
63.649
65.891
68.16
70.455
72.774
75.115
77.475
79.848
82.23
84.613
86.99
89.351
91.685
93.98
96.228
98.417
100.533
102.561
104.481
106.277
107.938
109.454
110.818
112.026
113.075
113.969
114.722
115.347
115.853
116.245
116.525
116.695
116.766
116.747
116.652
116.479
116.215
115.842
115.341
114.683
113.834
112.742
111.34
109.573
107.404
104.809
101.776
98.289
94.326
89.866
84.908
79.475
73.613
67.381
60.846
